healthTOlarge,healthTOsmall,largeTOhealth,largeTOsmall,smallTOhealth,smallTOlarge
0.066263944,0.032101145,0.081577209,0.0572794,0.162193882,0.076333659
-0.075065688,-0.098186798,-0.055722939,0.000358973,-0.048946773,0.094832423
0.027837275,0.039595892,0.033485346,-0.000261439,0.033828428,-0.05476251
0.094534909,0.015619381,-0.01373016,0.042131107,-0.075375137,-0.059382222
-0.028692366,0.092651443,-0.012684615,-0.018659349,-0.111321134,-0.057188863
0.155127922,0.055775151,0.120170835,0.037736163,0.013937139,0.160131825
0.035126213,0.035774808,-0.023511765,0.00197973,0.019708451,-0.077961766
0.134046933,-0.08614298,0.010218062,0.012126456,-0.127837388,-0.018084291
0.094465262,0.115133667,0.036650762,-0.007961065,0.039926424,0.038184742
0.132449825,0.040554575,0.00920571,0.054933633,0.131510654,0.194050744
0.257741825,-0.016539028,0.028288487,0.090741703,-0.051449062,0.156019435
0.044531988,0.074785564,0.098847396,-0.057967911,0.245873778,0.305515397
-0.014654615,0.03007754,-0.037382098,-0.03606489,-0.021757349,-0.086810574
0.03057086,0.183483305,-0.004884398,-0.082242469,0.155588723,0.072469833
0.045715655,-0.057888193,0.09026282,0.081151949,-0.014450885,0.003802072
0.050985805,-0.052071488,-0.024403192,-0.07557467,0.209159923,0.020897103
0.083603226,-0.045271217,0.047851765,0.010447573,-0.038259104,0.006575879
-0.024346613,0.101961919,-0.057097817,0.049766302,-0.010641117,-0.021751091
-0.00964231,-0.10117769,0.006095851,-0.053939541,0.026728418,0.10163089
0.010886961,0.107455553,0.14656861,0.021646965,-0.025992828,-0.038396498
0.170619901,-0.008724442,-0.017480008,0.019239157,-0.075094146,-0.054980604
0.151014505,0.04350264,0.016909327,0.052654025,0.114096744,0.004006981
0.066977079,0.079038402,0.030465713,0.1196547,0.240020911,0.010364591
-0.043149901,0.045904095,0.074918456,-0.014313998,0.109560565,0.001138644
0.013715053,0.051149981,0.049661939,-0.049144789,0.037737605,0.131111902
0.092934669,-0.111669996,-0.073574726,-0.009121874,-0.03662454,-0.057890783
-0.087669198,-0.089061215,-0.089987488,-0.035292238,0.350428277,0.100648324
0.003944676,-0.16305129,0.015118237,-0.045291651,0.029044747,0.026276803
0.099656302,0.049382583,0.174633147,0.069475735,0.207362227,-0.007300247
-0.048843382,-0.061752069,-0.12842073,-0.068656646,-0.04693214,-0.054293636
-0.030303409,0.071577637,-0.05844703,0.045370891,-0.230866634,-0.031980064
-0.034509705,0.197156579,0.029717642,-0.001936063,0.046407358,0.084207824
-0.023165451,0.008480023,-0.096981069,-0.051130814,-0.017531206,0.0009963
0.699086988,0.295656234,0.124018657,0.041306896,0.189833353,0.047611839
0.067705564,0.008334752,-0.027691962,0.02689009,-0.033644588,-0.024778746
0.408851673,0.229932464,0.123796011,0.064363028,0.087885575,0.164139297
0.253156854,0.000667566,0.12065776,0.043637168,-0.237665805,-0.012562036
0.422394001,0.229447291,-0.018881205,0.036800484,0.168819423,-0.001800309
0.119124429,0.06954666,-0.006256711,-0.121695024,0.155617701,0.150863639
0.210797191,0.041667418,-0.012570598,-0.075442103,2.085536138,1.24623367
-0.366973395,-0.130528149,-0.010132478,-0.072545628,-0.040469337,-0.013025303
0.21655177,0.15954129,-0.124619802,-0.002567487,0.602146875,0.267217172
0.131746879,0.126491567,1.300984008,0.295617649,-0.126752072,-0.351162501
0.154227802,0.040806585,-0.892933906,-0.23858985,-1.050233801,-0.718392515
0.415849536,0.293190548,0.185512249,0.019702166,0.82211674,0.34168517
0.019331002,0.041298503,0.353795026,0.113497735,0.281112654,0.056283439
0.287171383,0.256109606,-0.488004547,-0.119908174,0.742803274,0.309879506
-0.006162524,0.052011937,0.935543343,0.214450017,0.689562986,0.256712269
0.343413222,0.230408407,-0.305103299,-0.032090069,0.612763138,0.160546049
0.010633115,0.027346263,0.422959306,0.050306731,-0.07837255,-0.153508458
-0.00171259,-0.005475547,0.529256868,0.117427459,1.285216744,0.649159406
-0.294671858,-0.118454225,0.029511084,0.048125363,0.649920968,0.976526703
0.241832668,0.239353977,0.562436841,0.087323137,3.952589073,0.750380387
-0.10774015,0.151845267,-0.212103913,-0.042847081,0.200099912,0.050739801
0.224946735,0.005416362,-0.338583181,-0.046195941,1.171810718,0.222084557
0.292539345,0.177686483,-0.080494337,-0.064108654,-1.077904393,-0.275011267
0.001791688,-0.046804117,1.691627239,0.292072126,-4.783859297,-0.406110355
0.209979514,-0.023957926,-1.686053422,-0.256934951,-1.216200041,0.121098052
0.01632279,0.019281501,0.224688277,0.018550072,1.611076501,0.046019477
0.253260347,0.086617997,1.329131618,0.081444913,-0.451602381,0.349996013
0.078740409,-0.058467686,-1.651826484,-0.111711239,-5.615657796,0.141613871
0.024272606,0.054006614,0.015899893,0.234332983,-0.066184712,-0.168618159
-0.117556793,0.023589482,-0.546367627,-0.000771498,-0.955987233,0.068892795
0.141388678,0.147722879,0.639367913,0.047829093,1.249386992,0.562323773
0.143813086,0.116039713,1.051579035,0.090908109,2.739534244,0.55091712
0.053922887,0.065736831,-0.05378359,0.052554374,0.466363459,0.533852116
0.076091363,0.991554352,-2.26622713,0.080332438,0.093789449,0.052034431
-0.126703283,0.047837709,0.708355888,-0.028148967,0.151829948,0.188673349
0.099754693,0.116061871,-1.525197918,-0.065147217,-0.251768691,-0.057448999
-0.146123394,0.20424195,-0.537535062,-0.07994819,-0.25978793,-0.334256302
0.132382405,0.536086436,0.248260721,0.137759469,0.158663353,0.09400574
-0.036851772,0.230197341,-0.250171872,-0.134804652,0.13655994,0.026617169
0.012836427,0.229027558,0.036194242,0.038382741,0.10758312,0.133621823
-0.089733079,-0.431974688,0.071890919,0.021823958,0.452390597,0.181341617
-0.163162704,0.204629707,0.049469571,0.055603508,0.025702937,0.04879782
-0.017158501,0.396816959,0.162736767,0.111227724,0.034840364,0.02159403
-0.105564193,0.211452166,-0.074846758,-0.046692242,0.162393375,0.334378336
0.991020508,0.115851811,0.049860546,0.064867822,0.253818063,0.391193626
0.13477555,-0.002490454,0.033307648,0.063485294,0.228785355,0.121257796
0.442775923,0.20188628,0.097553916,0.045818818,-0.149435513,0.119355794
-0.045838168,0.096998347,0.188183546,0.034909346,0.095187429,0.133534429
0.340924529,0.011341032,-0.080751819,-0.105531512,-0.114949832,0.149182819
0.380165126,0.036357723,-0.0932949,0.017907118,-0.092839947,-0.113880249
0.306036121,0.151651888,-0.079811413,-0.02645961,0.059921502,-0.02545492
-0.177295534,-0.106805393,0.122482816,0.85852737,-0.011356315,-0.115010551
-0.244082003,0.197813427,-0.076925639,-0.732365034,0.064369427,0.24409703
0.285692623,0.22010942,0.007613083,0.079443421,0.189782755,0.044850808
0.228484048,0.043893954,-0.056636111,0.205691748,0.040809956,0.105245082
0.550664408,0.075364802,-0.137171582,-0.109416492,0.049694426,0.113896623
-0.037247229,-0.162740153,0.077549304,0.600468754,0.231567968,0.10264424
0.023348852,0.045436271,-0.112465624,-0.390583069,0.068555937,0.137325919
0.11198287,-0.268811082,0.091959742,0.052998637,0.105759342,1.668829667
0.49861384,0.25877846,0.102679436,0.047734233,-0.007516286,0.083934052
0.095358486,0.03268531,-0.031068395,0.053694747,-0.021819945,0.40664031
-0.001867165,0.168193435,0.152281972,0.275259225,0.055616006,-0.144053363
0.048812063,-0.005462798,0.093187421,-0.355243858,-0.157408685,-1.472467853
0.022552258,0.126335707,0.006518897,-0.31401247,0.000103329,0.476851997
0.307568188,-0.168185836,0.02945518,0.12012939,-0.04853664,-0.243987785
0.181051624,0.023677988,0.049566437,0.124133881,0.039289355,0.07414342
12.49077962,0.099930225,0.006840562,-0.093850821,0.076084097,0.34754138
-2.962852745,-0.057199267,-0.003556336,-0.010260132,0.114609705,0.516603109
-1.668026665,0.043120531,0.021094666,0.009047732,-0.059214267,-0.377965803
5.426446973,0.08994053,-0.048503664,0.03736469,-0.104919316,0.909992409
2.764149325,0.101010077,0.102070092,0.1073301,0.128810936,0.821668569
3.236815506,0.233799274,-0.042497329,0.013597804,0.198776895,0.85290223
-0.063330045,0.037483345,0.076285114,0.023280185,0.061686868,0.072237652
0.299240205,0.02296594,0.029952454,0.091504991,0.075513054,0.191242739
-3.112901598,0.013127485,-0.058714121,0.01223022,-0.03759809,-0.072984973
6.376354733,0.103352756,-0.057650348,-0.029386806,-0.016560721,-0.729394634
-0.076571835,0.025271564,0.017729191,0.055624338,0.137384278,0.236447393
7.149207592,0.026052705,0.040451438,-0.13437669,0.083627371,-0.114522859
-1.782235446,0.02963761,-0.039307754,-0.066419149,0.191950702,0.187517826
-0.842636223,-0.158310414,0.129719096,0.151204754,0.058309123,0.638376066
3.162097576,-0.018851818,-0.121762823,-0.040431169,0.117003044,0.323139372
1.463584287,-0.051145259,-0.007360057,-0.049406335,0.023584698,-0.17557889
1.872564912,0.011783724,0.07407595,0.018531259,-0.117434401,0.402693677
0.010814883,0.17912811,0.056593265,-0.155172174,0.320491247,0.252506186
0.290024992,0.060491244,0.039122688,0.00825692,0.719580045,23.83294665
-1.924281416,0.192107091,-0.063205309,-0.104820097,0.147335112,1.299336382
3.559280267,-0.064470593,-0.005848548,0.055798451,0.327311842,1.858360426
0.139641605,0.199715141,-0.05022459,0.230518317,-0.104608959,-6.110102356
7.168804989,0.151319051,0.014174644,0.151506082,-0.449796712,-8.679601792
-1.77255639,-0.018579785,0.054750039,0.212248844,0.296894138,13.47210859
-0.832002195,0.075714644,-0.17836163,-0.105710247,0.153104922,0.078725704
3.15770857,-0.094950843,-0.057449729,0.015017689,0.225578428,9.920117304
1.4625351,0.041195223,-0.061656824,-0.057098146,0.092273718,19.76544996
1.882420024,0.288478232,0.399386274,0.108064033,-0.090871268,6.145895096
0.012073739,0.027873531,-0.381607555,-0.027849911,-0.105834873,1.21163259
0.293371456,0.052101104,-0.029877733,0.02691405,0.492962612,11.52903704
-1.929916925,0.020876944,0.143743646,0.099367647,0.20308687,6.300482454
3.576120713,-0.132568842,0.001700361,0.016391309,0.310772583,13.55765308
0.138723056,-0.038368034,0.22076338,0.133233834,0.058502182,0.857863783
4.081541832,7.161491539,0.020866289,-0.050680103,0.254291222,0.926190309
-0.85817932,-1.782306087,-0.072375479,-0.036792391,-0.168932414,-3.601381525
-0.279427869,-0.840984616,0.180595951,0.020341829,-0.040102115,-5.004479519
1.692202456,3.157118763,0.136502251,-0.001137722,0.008757031,7.74809614
1.037007642,1.459621713,0.122052999,0.081962531,-0.074517474,-0.08700355
0.83830814,1.871093885,-0.103867239,0.002811885,-0.009703656,5.643411626
0.353267607,0.01803267,-0.136298153,0.006561099,0.115435966,11.12948495
-0.10144758,0.290250139,-0.117644999,-0.05088411,0.099252947,3.583375696
-0.81739418,-1.922917526,0.159224298,-0.004505061,-0.185222671,0.719309827
1.839427029,3.55723604,-0.129538863,-0.021215026,0.307699651,6.687453061
0.313633162,0.13658756,-0.066151374,0.125409321,0.088098705,3.554781419
6.406528341,7.166860175,-0.007600919,-0.016423135,0.400972838,13.58904037
-1.527977988,-1.778978424,-0.016793491,0.081176989,-0.028601829,0.860615295
-0.791842791,-0.834131681,0.189160379,-0.049521862,0.09081909,0.93127781
2.769159903,3.158860948,0.035702705,-0.037217993,-0.142721866,-3.595444017
1.352412437,1.468171088,0.100029241,0.076040989,-0.142284285,-5.044303662
1.663402411,1.875769589,0.059103228,0.114911101,0.175711554,7.743010835
-0.00627042,0.011146687,0.012599484,0.038902382,0.039349712,-0.09344
0.206153591,0.288570926,0.090415999,0.044953229,0.187439991,5.633154428
-1.663166405,-1.918416294,-0.000474684,0.022034353,0.241605743,11.13210226
3.163212714,3.560059026,-0.113269398,0.0659699,-0.021258095,3.601429581
0.233738209,0.141001713,-0.059704425,0.020980984,-0.053656607,0.716920968
0.500149293,0.072663289,0.243184688,0.10840192,0.140823239,6.701552912
0.066853881,0.185810071,-0.247646526,-0.074696568,0.118654062,3.57184589
0.059548691,-0.132206382,-0.064858296,-0.008462681,0.093323169,7.649244528
0.063508987,0.034925337,0.007327504,0.12094993,0.098806623,0.386205385
0.823879365,0.133718396,0.008539543,-0.026550769,0.110620334,0.7673361
0.370493867,-0.413724794,0.151161512,0.034653785,-0.031132007,-2.085056611
-0.054403241,0.361604073,-0.064551847,-0.118334415,-0.070408315,-3.042912944
-0.109677404,-0.370266035,0.000630196,-0.060198899,0.023461804,4.05248762
0.043962138,0.325548034,0.068089111,0.051154878,-0.069218608,-0.075254198
0.593705264,-0.092851571,0.00307644,0.105099873,-0.052698202,3.158389539
-0.02379775,0.280336244,0.119941631,0.029633965,0.066988382,5.726292231
0.013961298,5.792092986,-0.020618544,0.095788714,0.056475006,2.113148664
-0.015256456,-1.350800984,-0.077803633,0.011866286,-0.10329421,0.441814565
0.043322832,-0.722257635,0.011722722,0.009342223,0.013079687,3.729733394
-0.025424198,2.60611533,0.065788741,10.86317218,0.038066656,2.15592727
0.091948709,1.307759968,0.004820055,-6.813059602,0.104784706,12.14105341
-0.034625765,1.512493861,-0.060727869,1.226281148,0.002914738,0.704419981
-0.084361663,-0.056060465,0.024108249,3.103573981,-0.136371031,0.831650456
-0.079239688,0.186364526,-0.037423178,-4.646233915,-0.063283704,-3.265647402
0.117618308,-1.549535618,0.107730976,8.363491481,-0.0606609,-4.519484531
0.061862045,2.972778528,-0.015542163,-4.028698096,0.003344458,6.921267673
0.158669186,0.227804629,0.068110063,4.118705043,-0.049108859,-0.112790781
0.019600825,0.111173142,0.075871926,7.184591339,0.137273098,5.060252219
-0.125547235,0.047238261,0.007597737,0.816522427,0.018558407,9.889536104
0.038084347,0.075451696,-0.005249729,6.236013999,0.09653433,3.099272371
-0.146083549,-0.047594773,-0.013523638,-2.204460226,-0.01749696,0.665433168
0.142270189,0.113357837,-0.048182257,-0.432064752,0.008653645,6.02992408
-0.01953392,-0.020936186,-0.030877772,2.773252623,0.043008436,3.105532735
0.066582842,0.032256715,0.073925142,10.86809019,1.503227542,0.888315979
0.056382274,0.09038741,-0.083477077,-6.820036034,-0.294303504,-0.064235086
-0.050649777,0.000124353,-0.044381077,1.225047989,0.382807483,0.190612872
-0.014968079,-0.018611248,0.028652257,3.105571887,-0.270900309,0.268037314
0.047231008,0.004467168,0.017855862,-4.64743131,-1.457757007,-0.789796471
0.442471707,0.12682179,0.079381963,8.366770173,0.387112782,0.231887908
0.001822673,0.123219515,-0.025282678,-4.025980399,0.136431402,0.121115842
-0.015694418,0.007045318,0.040298938,4.114815421,0.217613852,0.119457995
0.280787573,-0.108831594,0.003504085,7.187348007,0.043584883,0.795905859
0.577855049,0.040833363,-0.001552938,0.814579206,0.448128606,0.119579145
0.19303753,-0.018705058,-0.030362674,6.23713841,-0.234888904,-0.004711947
0.16578095,-0.02654583,0.046119909,-2.198662802,0.591035313,0.472126058
0.028353972,-0.037595857,0.049829418,-0.436583923,0.45891647,0.476036633
0.387944662,0.12632604,0.059513133,2.772197911,7.721907629,0.074105672
0.181375382,-0.007638142,0.789057013,0.098988688,0.065670747,0.04619908
0.304517864,0.1663076,-0.602552625,-0.197427381,1.372801458,0.149544251
0.343751731,0.119018492,0.156840988,0.141155834,-2.328715504,0.082049125
0.031614273,-0.233534618,0.109985653,-0.179982038,-2.074555828,0.027874236
0.180094187,0.145516131,-0.416567634,-0.049452591,5.14905622,-0.037672372
-0.031791485,-0.192231322,0.424491466,-0.09420948,-0.869476656,0.013615891
0.143792929,-0.071987953,-0.567311172,-0.007167977,3.885285073,0.068437055
0.075613704,0.289936497,0.228054403,0.191077033,11.45744379,0.07117711
0.10057058,0.006000236,0.390365388,0.153505002,1.262771756,-0.045661497
-0.056868182,-0.136381985,-0.030716309,-0.147560911,2.071790947,0.04340066
0.038435325,0.03697422,0.063469523,0.112887608,4.988491762,0.162018415
0.147904233,-0.015619294,-0.007426013,-0.160427942,3.151362005,0.003882452
0.061954229,0.01458972,-0.091149622,-0.082884883,0.260424045,0.05463267
-0.150029681,0.135228392,-0.023381021,-0.01756111,0.137578592,0.092673441
-0.195003961,-0.008995202,4.669941011,8.789750337,0.080145463,0.127608405
0.23639896,0.092644414,-3.899189348,-5.550020355,-0.241875248,0.02631299
-0.219777236,-0.047263436,0.582121312,1.037001536,-0.037592419,-0.089008822
0.014209508,0.001676737,0.76535259,2.458890736,0.25402597,0.095259044
-0.191879523,0.043207374,0.718459828,-3.764890313,0.005379301,-0.025777798
-0.051824154,-0.009175377,4.3924541,6.798449948,0.324041302,0.100826425
0.373254777,-0.043738444,-1.053293285,-3.188714831,0.578730413,0.134540679
-0.12306829,0.098710633,0.987688569,3.316744664,0.116199383,-0.088488353
-0.004696765,0.045419025,0.770768797,5.823550281,0.165681203,0.078702176
-0.058830301,0.060514612,0.580137731,0.627981898,0.084787884,-0.015164692
0.028636978,19.56101027,5.764428688,5.100475661,-0.047410841,-0.040575841
-0.129229244,-6.059713741,-1.671923063,-1.756341885,0.168512244,0.743966653
-0.043129728,-5.690895629,0.186582786,-0.269436311,-0.081283661,-0.044213346
-0.02354548,13.96640468,0.486308756,2.304961817,-0.052265329,0.23271829
-0.049541415,33.90511974,0.169968943,0.114137757,-0.144941182,-0.237419266
0.140893763,4.836806969,-0.170843298,-0.10282175,-0.169972148,-0.410769879
0.184956941,-3.156714757,-0.003821449,0.008565615,0.081999699,0.301943912
0.047111443,-2.87716026,0.017356334,0.020822211,-0.098408118,0.160297782
0.103921885,15.59329349,0.15105308,-0.08170255,0.131036866,0.05477746
0.030042469,9.752068271,0.127563685,0.0780042,-0.080509066,0.673080589
-0.12623835,16.54393531,-0.061193509,-0.053504417,-0.099311066,0.220540866
0.02278804,0.037072049,0.054622425,0.061015116,0.025005577,0.10804657
-0.139292811,0.150663433,0.051059775,0.066071486,0.081721561,0.509043637
0.072306741,-0.062337917,0.200335814,0.032984984,-0.109374012,0.27458008
0.163760031,-0.042486541,0.265173397,0.011673628,0.33279931,0.573898534
-0.2370375,0.096524267,-0.137939855,0.032197363,0.118069524,0.054954636
0.094604829,-0.028911672,0.062648952,0.035416257,0.026829152,0.228900747
0.057767259,0.097772936,-0.004923119,-0.04825125,-0.0207813,-0.064144098
0.124746419,-0.001991468,0.067928791,0.109201646,-0.403464432,-0.487683556
0.008339688,0.113828416,-0.109892868,-0.146702877,0.08454533,0.090462702
0.272126127,0.258782382,-0.011571271,0.058964138,-0.081117457,-0.05098921
-0.07435965,-0.100491807,0.003925946,-0.000951273,0.015725896,-0.010614376
0.121946242,0.113077326,-0.00938627,-0.082724581,-0.134855276,0.120750928
0.10212589,0.095806032,-0.014738606,0.02158287,0.147554144,0.167207358
0.245106158,-0.018655297,-0.030445208,0.001227123,-0.161696698,-0.060396283
-0.143313009,0.102376163,0.079003191,0.0146331,0.150682196,0.222274954
-0.00252563,-0.080568453,0.079971073,0.096034083,0.242577383,0.330265479
0.268220315,-0.00450892,-0.043945135,0.044833227,0.25202192,-0.272952988
0.066276558,-0.008698503,0.005386312,0.016180153,-0.037132116,0.25375828
0.036394931,-0.45437787,0.05040841,0.023279722,0.071299726,0.18523325
-0.110878329,0.05759719,0.00055436,-0.05994211,-0.184872337,0.065775826
0.053199442,0.124895044,0.132255067,0.07590364,-0.182908616,0.137144266
-0.058665332,-0.101391357,0.173354675,0.132044529,-0.209433922,-0.139312116
0.068962411,0.089211255,-0.097676363,0.034718712,0.100153134,-0.179731046
0.223362295,0.04997844,-0.027034681,-0.020349389,0.035704365,-0.051560287
-0.010475054,0.091439373,0.144857529,0.232738036,-0.168631107,-0.012725818
-0.021998115,-0.047398872,-0.046153284,-0.086976884,0.033831683,0.017479703
0.017522124,-0.106645596,0.182322636,0.059694023,-0.188419734,-0.287627826
0.045086162,-0.140517478,-0.040884579,-0.062604302,-0.07210515,-0.069005185
-0.004541076,0.136500053,0.061294881,-0.028480636,0.224585772,-0.392554311
0.0364578,0.061123881,0.12207454,-0.003496404,0.49141196,-0.00684583
0.140189567,-0.019399486,-0.005591286,0.191402774,-0.004927891,0.063175569
-0.092564932,0.001229529,-0.100115815,0.077656999,-0.075661414,0.042889783
0.053352736,0.169249993,0.011978039,-0.176108941,-0.228101955,-0.052917201
0.069361517,0.027717956,0.023344539,-0.056535045,-0.430422014,0.008929121
0.057632074,0.008790966,-0.04450124,-0.050264054,0.279301771,0.165613335
-0.000242933,0.073733355,0.094407791,0.129019205,0.085489011,0.064384597
-0.035262104,0.104964109,-0.167776948,-0.133732159,-0.158740513,-0.036216687
0.054762951,0.00720981,0.046372646,-0.004454414,-0.2588169,-0.010672666
0.003732952,0.021071906,0.006472811,0.055599886,0.091916718,0.215054711
0.011252503,0.220135867,-0.05953402,-0.003713124,0.073047142,0.19577458
0.106316384,0.01242578,0.026240943,0.049518125,0.149198323,-0.061808522
-0.091532646,-0.231514348,-0.002872612,-0.0239715,0.331800124,0.001312282
0.097301179,0.092796189,0.097208887,0.013950209,0.119703673,-0.023302989
0.054157573,0.086993409,0.020131113,0.087332975,0.083967605,0.177597995
-0.005335995,0.089463827,-0.03007786,0.058569635,0.02280143,-0.011862257
-0.063624223,-0.03359467,-0.13957949,-0.010912552,-0.030809075,0.10072105
0.101438418,0.128075585,0.006345337,0.009223642,0.05059027,0.046956998
0.01100564,-0.002624468,-0.048709178,-0.038462022,-0.048867136,-0.012753597
-0.000256884,0.189433624,-0.084320455,-0.027678998,0.056670808,-0.011604804
0.027521721,0.009568303,0.378048752,14.35281894,-0.159505542,-0.109395611
-0.15652606,0.000276035,-0.204157498,-14.55823683,-0.031973883,-0.049211475
-0.095441977,0.103523807,0.063208253,2.227941919,0.091406952,0.516051742
17.47133053,0.081319306,0.232734245,2.641551746,0.037261195,0.172968795
-5.229364877,-0.158729989,-0.24208402,5.984626384,-0.042650543,0.021484281
-21.74615302,-0.005958355,0.186742869,12.99271529,0.129741484,0.049493046
10.45218207,0.0638416,-0.26141723,-1.817253867,0.09724672,0.204954149
-15.9112796,0.10984494,0.125225294,1.25685082,0.014115715,0.038041039
-16.08134194,0.020128795,0.323897535,-1.976008744,-0.028942813,0.022252883
-0.782029589,-0.024528231,-0.077012512,2.22452966,-0.009353926,0.089957155
13.1945426,0.071064317,-0.008830907,18.38648416,0.031237485,-0.371444916
22.19220008,0.058906321,0.06126769,-5.130379386,-0.040911265,-0.027965072
22.93883724,0.033354444,-0.205972438,-1.151696334,-0.019497081,-0.002355157
11.40568151,-0.053309673,0.202419819,-1.807582726,-0.197263049,-0.225526772
-3.391937015,-0.041665041,0.139409402,0.06759495,-0.109626904,-0.137750684
-14.22468986,-0.05592023,-0.040884537,-0.062558003,-0.047932592,0.03270155
6.81440364,0.024689196,-0.028057898,0.085879836,0.047405882,0.031965184
-10.51661705,0.056220126,0.058508158,-0.123062566,0.106262729,0.246980278
-10.52807483,0.019719574,-0.036016278,-0.045725247,0.140575854,0.202486545
-0.540578019,-0.056084663,-0.026221899,0.090800971,0.234849173,0.07434121
8.470309156,-0.042670671,0.153667717,-0.018209116,0.199624789,-0.014976191
14.49724991,0.014208213,0.139482268,-0.035480135,0.093478832,0.011620791
15.07253874,0.119029975,0.142758046,0.070108564,0.142053254,0.011660215
7.914719786,-0.005255544,0.031520681,0.001278717,0.155540046,0.14802727
-2.337801773,-0.181791248,0.090849619,-0.025285395,0.160650069,-0.124442274
-9.791771954,-0.067603026,-0.046358936,-0.013449296,-0.000228326,-0.04827438
4.733489478,0.038695053,0.064485604,0.012645438,-0.118460998,-0.104307086
-7.228645028,-0.006752396,0.104026655,0.012553422,-0.181208124,-0.016033096
-7.268489392,0.195851214,0.033333895,0.129300323,0.16955528,0.07761449
-0.360687041,-0.087060126,-0.006345359,-0.182216204,0.004081278,0.062338894
5.93984554,0.037567074,0.019217468,0.117582895,0.084912563,0.077963367
10.17537429,-0.066874585,-0.013444338,0.099003793,0.050423802,0.352491706
10.43312631,0.131191813,0.030170727,-0.02310964,2.100706122,0.061058302
0.046907026,0.03956115,0.176229434,-0.006710984,1.33702847,0.015299074
0.064635546,-0.076502351,0.184929881,0.014319609,0.489471464,-0.007727398
0.047720716,-0.0110288,0.129941218,0.001957432,0.299929029,-0.023296791
-0.190339126,7.902507235,-0.203150061,-0.060213273,0.809319911,0.091389106
0.101272748,-2.335436776,0.035331107,-0.130729105,-0.781907233,-0.022639818
0.124482084,-9.801571964,-0.053158497,-0.058902749,-1.454373297,0.01616111
-0.01354418,4.730303495,0.136531246,-0.086836172,-0.91829951,-0.052868083
-0.101708456,-7.244238217,0.268329931,-0.049177659,-5.691484543,-0.083830651
-0.009831513,-7.287880948,0.093878697,-0.093808503,2.495538631,-0.035222722
-0.169947484,-0.34042327,-0.04391406,0.042353777,-1.598523776,0.014461256
9.333846235,5.939882486,0.136977834,-0.072506749,0.673865202,-0.105554173
-2.540451498,10.1351827,-0.096978609,-0.00195272,-0.999450096,0.153920985
-10.70766861,10.43290464,-0.297565386,0.006960627,1.030561384,0.082310287
5.053676061,8.444859935,0.150057489,0.008431833,2.948694488,0.075753331
-7.795411064,-2.508432735,-0.133307654,0.000127429,1.454474792,0.053448175
-7.55032203,-10.46100095,0.154586886,-0.017702909,2.907133416,0.044181465
-0.410308187,5.117169227,-0.252815709,0.114950625,0.888098906,-0.021023863
6.128086092,-7.798574699,0.114408592,0.108173496,1.249746947,0.015777411
11.00807948,-7.763052431,-0.00020224,-0.002561685,2.100514513,-0.054827209
10.98674551,-0.354689112,-0.16070547,-0.11528343,0.145552157,-0.042602399
2.609082375,6.427982565,1.62852643,0.064697583,2.274264685,-0.083850616
-0.255698201,10.80765884,0.279056395,-0.053115026,0.553961663,0.013327043
-1.594641508,11.21538108,-0.723476082,0.047909744,-1.100623482,0.17315159
0.891030707,0.065182084,0.651203746,0.07394593,-1.09452656,-0.080643716
-1.43607115,0.085742196,0.275812866,0.041380942,0.036088862,0.051452244
-0.451763661,0.104404319,-0.910334266,-0.00568132,1.051056643,3.505263949
-0.298992206,-0.071265824,0.338495917,0.028130993,0.480642677,3.095151991
0.695321624,0.123400933,-0.111698264,-0.075617121,-0.041558148,0.721041708
1.234182824,0.068019296,0.964410653,0.127065913,0.167415978,1.619210621
1.376914958,0.123392123,-0.579980016,-0.061940765,0.583276501,0.872445083
4.403737252,-0.057593751,0.251009375,0.05123138,-0.686420799,-1.579340676
4.779682146,-0.114541834,1.261119238,0.085320322,-0.496643163,-2.151355518
8.184778054,-0.003897514,0.550482373,-0.153137224,-0.346610048,-0.981702962
-9.258440649,4.062068862,3.869758666,0.024682335,-4.210640298,-15.59183422
5.590454231,2.923036501,-0.040631912,-0.018394083,1.4001653,8.262007717
8.401893257,6.514205741,-1.254099123,-0.085052647,-2.809012203,-8.572261929
5.000838113,-1.39592528,0.787861464,0.073316482,0.986224564,3.992661513
-7.894526275,1.589056453,0.71562943,0.067185268,-1.547315545,-3.764625343
-7.054423978,9.692461048,-4.555932698,-0.099151777,0.131254457,2.272336215
-10.25396322,-2.20175652,-0.404371697,-0.091930135,0.083861153,1.995789425
2.508895644,-5.533008669,-2.004360489,-0.009795024,0.086072524,0.425008417
2.834223806,-12.48523678,0.114400551,0.008989783,-0.081779979,1.093677648
4.564000294,-10.44436881,0.421675814,0.025506875,0.051980816,0.690791019
-5.438104276,0.037877452,-0.038693645,-0.030798545,-0.087699818,-1.076140765
3.160942379,0.171279016,-5.083224841,0.014127323,-0.063961269,-1.453899229
4.792390825,0.055520854,-2.79523948,0.114331689,-0.159761453,-0.481656846
2.696791577,0.010869705,0.37997638,0.044894671,-0.190670059,-10.11856126
-4.397472051,-0.02950798,0.09678481,0.07101914,0.222133935,5.35309746
-3.977036207,0.12551423,-0.260164889,0.109575223,0.191579045,-5.591317524
-5.866560193,0.103200795,-0.117783437,0.038802696,0.105186718,2.845890906
2.513796048,0.149203292,-0.062260468,-0.019737794,-0.292555246,-2.627362289
2.835271474,-0.143150138,-0.212705275,0.047479181,0.057798814,1.580131917
4.587130288,-0.116792126,0.213722465,0.114546593,-0.005268052,1.337107129
-5.443471126,0.204196944,0.172070989,-0.078851933,0.085094293,0.315277017
3.172750932,0.099584053,0.23240159,0.050481771,0.067390103,0.780779134
4.810152202,-0.263173108,-0.102664993,-0.033864754,-0.018851362,0.450098001
2.694416343,-0.024862348,0.000832068,-0.033328565,-0.012810507,-0.747633842
-4.406209241,-0.026873231,0.507035234,0.009199335,-0.036933306,-1.006582483
-3.986392976,-0.022348268,0.09488422,0.035730336,-0.059748227,-0.505089972
-5.892257445,0.140307389,0.159942519,-0.064276546,-0.06441753,-7.046651292
13.28103936,-0.228037444,-0.106397983,-0.144049803,0.232336895,3.686020975
-2.036297222,0.216536071,-0.087806762,-0.037850828,-0.113151473,-3.956961602
-12.33724447,0.31942503,0.07113045,0.116211331,0.015602368,1.90736611
4.355458746,0.041225237,-0.108494489,0.05573414,0.015662236,-1.699646025
-9.026169975,0.101537243,0.104584324,0.144052751,0.222382385,0.069168357
-8.243030285,0.021706823,0.239032923,0.055590835,-0.075040533,-0.028984076
0.851064548,-0.031369655,-0.095428458,-0.024325113,-0.03163647,0.057480244
6.644317859,0.109768796,0.100044048,0.071444627,0.001114724,0.144076866
12.74458387,0.117899306,-0.128001089,-0.005217873,-0.075449929,0.018602225
12.36026922,-0.06608496,-0.176600877,-0.215719643,0.127108095,0.118926402
2.247232151,-0.08833998,0.085648022,0.018041335,-0.166864237,-0.194755159
2.511479528,0.009505468,-0.008972724,-0.024446049,0.064034808,-0.123169456
4.077659877,-0.167673767,0.062621362,0.007094502,-0.115473738,-0.102795638
-4.786467742,0.03202797,0.019693824,0.005788294,-0.141097724,-0.163220263
2.791545745,0.106832151,-0.059538363,-0.020832223,-0.110105067,0.029966549
4.26493562,-0.059017994,0.001756489,-0.1648298,0.015326768,0.126308255
2.458719675,0.083924078,-0.029499492,-0.196661883,-0.030730175,-0.136921613
-3.981392323,0.085941117,0.081769489,0.131478258,1.133208702,2.546118028
-3.539706479,-0.036974087,0.003931115,0.019341665,-0.94030932,1.628674307
-5.272106544,0.151942749,-0.141848363,0.064816105,-0.092592479,0.593964412
3.58560093,-0.118483414,0.092091967,-0.044390976,-0.531986804,0.795228452
2.228035061,-0.087634254,-0.116716581,0.098873161,-0.120993664,0.221759898
5.350261696,-9.16E-05,0.185365219,-0.205209702,0.35247456,-0.807362411
-3.119636647,0.041665869,-0.098717253,0.003224204,-0.118325312,-1.137203337
6.42630937,0.081259688,0.008921931,-0.060558581,1.007263462,-0.780127645
7.176931508,-0.064610921,0.164949203,0.042022297,0.930091759,-8.551264904
-2.097676059,0.022814562,0.093390341,-0.114814661,-0.213405151,3.787730033
-5.58323616,0.047143163,-0.184521584,0.027820389,0.073615634,-3.806625946
-6.989271013,0.028931576,0.020294767,-0.192408204,0.272541656,1.781045247
-6.124134695,-0.212810665,0.019513212,0.002052597,0.042047146,-1.911870954
0.034717211,-0.145214061,-0.03907292,0.435574622,0.319155544,3.067992476
0.052344186,-0.016378962,-0.125299978,0.110378036,-0.212075551,-2.933100589
0.114431279,-0.063694716,0.01632515,-0.173050641,-0.018969215,-0.117142953
-0.034464322,2.511725272,0.089051926,0.027850377,-0.126187519,-1.863443652
-0.033529918,2.838724715,-0.226659347,0.032636725,0.051083735,-1.460427319
0.110587292,4.570014214,0.018710002,-0.274691905,0.138188086,0.652717163
0.070861846,-5.443042476,0.281887486,0.186325864,0.000583428,-0.536168363
-0.138478876,3.172221125,-0.119545677,-0.007909096,0.204360712,3.080522112
-0.035713749,4.795257023,0.598790118,0.0889819,0.002949773,1.83770125
-0.056723522,2.697909323,0.263954762,-0.180674304,0.046045467,0.482517863
0.114957105,-4.401603614,-0.181219173,0.167205034,0.059648515,-0.26024278
0.016901401,-3.989674748,0.126331067,0.221609794,0.097933665,1.237723361
-0.135079469,-5.874586849,0.253906202,-0.077130314,0.116278955,-0.581808226
-0.103938105,2.516345858,-0.570026768,0.432491213,0.225843362,8.786324113
-0.020835135,2.838382736,0.399870542,0.086973416,0.17235839,12.68049715
-0.056792174,4.579331461,0.169769996,-0.090260675,-0.026219682,8.171554491
0.004106104,-5.445955485,0.192249123,0.013677207,0.050850439,2.733531334
-0.047074922,3.171012129,-0.189830404,-0.019971738,0.112223236,5.726409325
0.240178561,4.807368835,0.221012222,-0.299858916,-0.042602449,-16.01136116
0.218200897,2.689605219,0.548732177,0.187020796,-0.191173625,-17.15757205
4.465041188,-4.408816904,-0.233655582,0.049324049,-0.093228307,-12.43538184
0.38608442,-3.997294109,0.235629588,0.123868809,-0.54151144,-20.35068348
-0.851146035,-5.878979483,0.110747335,-0.164179286,0.205114517,8.673174173
0.165957308,0.407115814,0.064899246,0.192406275,0.117062267,64.18964478
0.931752511,0.152413321,0.0744194,0.207053275,-0.096974333,-14.26686178
1.103950403,0.421201045,-0.192153373,-0.121643215,-0.083820891,7.36213731
-1.140244162,-0.259483628,-0.291214745,0.214082308,0.060841233,5.006934097
-0.66718281,0.447804615,0.268046159,0.04322497,-0.048960736,7.181193182
0.06138895,0.645083764,0.027102186,-0.121103834,0.020499147,4.616017266
0.879256485,0.255598246,0.313119437,7.80E-05,0.086057591,1.640174652
3.914601871,-0.685833007,-0.087193887,0.013220851,0.062979434,3.320987443
-0.113150533,-0.629527433,0.123244288,-0.175110279,0.016932737,-9.084462554
-1.883791887,0.119268209,0.136039163,0.067591714,0.032320703,-9.744494433
1.329886976,2.065068149,0.067480486,0.166542939,-0.038893715,-7.024421774
-2.253285504,2.282964756,0.307792848,0.175978314,-0.148795215,-11.62670469
-0.151086806,3.731034755,0.04940116,-0.199507955,0.101851702,5.064641009
-0.67640204,-4.323774081,-0.072766903,0.075295426,0.101066767,36.46892688
0.726654642,2.503388752,0.031315317,0.169484792,-0.022845269,-8.197093513
0.511772067,4.004150242,0.109112978,0.038150603,0.041478648,4.283228538
1.137904387,2.27292917,-0.069592088,1.323624612,0.055180857,5.021422896
0.352777772,-3.579019477,0.219029744,0.01820641,0.054050986,7.188987613
-0.044140062,-3.183410106,-0.049971313,-0.742915125,-0.034892285,4.624327468
-0.593249564,-4.919483375,0.373759365,0.124546679,0.048069213,1.6503937
0.002429427,0.141214088,-0.137309765,0.162921333,-0.022903913,3.312176614
-0.586329626,-0.049203605,0.067092918,-0.460713265,0.021224874,-9.088342956
-0.305635385,0.025418872,0.500667499,0.481560002,-0.15330517,-9.743167466
0.014497536,-0.101522352,-0.177957556,-0.003171529,-0.031923717,-7.040847232
0.371494008,0.01555305,0.064316015,0.778481297,-0.087762101,-11.63460206
0.788343979,0.10767337,0.125763663,-0.701953129,0.161800001,5.051617918
0.97216097,0.060333458,-0.036923308,0.486243514,0.101850651,36.46399663
0.097635568,-0.0894954,-0.023254966,0.925092238,-0.155320501,-8.203077085
0.145683763,-0.048037574,-0.105151458,0.346552322,0.049182844,4.302256944
-0.172281854,0.011122409,-0.083794516,0.170713476,13.80690385,5.606777094
0.118706152,0.064372419,0.104764308,0.086413057,-18.79809271,4.679777805
0.080480016,-0.035182591,-0.097617835,0.012777942,-0.52948533,2.647737362
-0.148153392,0.11483624,0.150203528,0.173544127,-11.75645573,1.230774765
-0.058708776,0.039182859,-0.016986531,0.037391908,-8.411341074,1.753476123
0.134915793,-0.023820271,0.107008848,-0.143068014,5.104319994,-5.30427026
0.163212907,0.036844945,-0.056246938,0.08071582,-0.579914146,-6.38869382
0.176604511,0.026189454,0.056808607,0.141217938,19.41005866,-3.128646264
0.169943125,-0.132804021,0.076372303,0.286917254,24.14627497,-15.01019237
0.188080537,-0.04769945,0.008348308,-0.018471098,-1.160437406,7.883304397
-0.06974142,0.013101021,0.017705532,0.029855734,5.589549474,12.5687426
0.019786606,0.234273147,-0.045428976,-0.10885073,4.09334484,-0.963064055
-0.013145195,0.324596645,0.10765477,-0.202634913,-2.497482828,-0.68611103
-0.11754431,0.078559974,0.05550437,0.129092399,2.459735318,4.479753939
-0.132104124,-0.177531238,-0.081474814,0.173745151,2.326508952,6.474784609
0.347457798,0.122583048,-0.037636259,-0.2265344,0.357838542,4.097390089
0.244112145,0.067962517,0.255817211,-0.007190326,-0.017322829,1.418487814
0.141654826,-0.245991579,-0.094706568,-0.055777801,2.016349203,2.972820636
0.193054382,-0.387449759,0.101130256,-0.12719542,-4.381896349,-8.123941611
-0.044212042,-0.01603422,0.119983471,0.268767304,-5.017941637,-8.644089204
-0.176846849,-0.068993147,-0.138195909,-0.052773364,-3.725844934,-6.225829648
0.11910842,0.068436476,1.280268136,-0.173576155,-9.200443754,-10.37026506
-0.162636906,0.069984339,-0.258203996,-0.264566526,0.487239954,4.474989069
-0.053313553,0.010548918,-0.842378986,-0.345851294,5.123387726,32.47406517
-0.142582328,-0.029597689,0.374064113,0.202461616,1.333471709,-7.219287125
0.087525454,-0.090309034,0.075867766,-0.077588111,3.64975455,3.833863149
0.294166566,-0.011378779,-0.504613271,0.134787328,0.077972473,5.55104296
0.024249365,0.028547329,0.492410034,0.091225793,0.064430529,-1.454013815
0.038905358,-0.054430773,-0.187582777,-0.227752526,-0.19018482,-0.564411472
-0.030874039,-0.076254665,0.448313412,0.063958488,0.075467931,-2.535862481
0.035209913,-0.006845764,-0.661715809,0.025774127,0.08591928,4.525451909
0.059580465,474.0707118,0.103318298,0.072010572,-0.136412213,-3.279805767
-0.056910481,-139.0298698,0.006812407,0.057224689,-0.263231703,-1.303029482
-0.170525771,-585.7485606,-0.048360966,0.093541118,-0.185266917,-1.269395901
0.115670277,290.4612883,5.434354399,0.02272298,-0.3811791,-16.79286663
0.019694188,-425.01241,1.332058726,-0.010916324,0.003512929,0.735148857
0.09464094,-426.1988932,-3.343862524,0.20362196,0.275723369,-17.40870948
-0.070348003,-25.03576934,-0.051237989,0.164077505,0.275727903,2.378415352
0.021792159,353.5037429,0.36234902,0.113203201,0.181975398,-12.45532459
0.00166842,607.5481836,0.511987307,0.027514804,0.088860377,0.080291881
0.046879298,620.6240866,4.482626169,-0.072574809,0.125898247,-0.064734342
0.004424737,0.117256949,2.685931768,-0.10206021,-0.052703561,0.025932287
0.024562567,-0.07248681,5.049057105,0.075402112,-0.038394636,-0.04892203
-0.093132445,0.000322716,-3.698732031,0.056674453,0.040162388,0.080823591
0.019165273,0.209579996,1.408695214,-0.067105484,-0.005385148,-0.017061891
0.015524132,-0.034280349,14.00046875,-0.006837783,0.007286063,-0.078323472
0.051526369,-0.01723052,4.72785669,0.308967128,0.07921185,0.080980255
-0.037350769,0.231350834,0.174094181,0.036441424,-0.104827898,0.003327382
0.053879423,0.122907793,0.162777823,0.007144309,0.047825737,-0.161337898
-0.034323481,0.17664859,-0.182517299,-0.262889952,-0.045845976,-0.047002932
-0.027893195,0.063397317,-0.174463622,-0.0534347,-0.062039482,0.130194307
0.043366152,0.166606034,0.046227024,0.077583535,-0.102381007,0.049079031
0.005597427,-0.083607834,-0.016201686,0.190850942,0.129557088,0.058736473
-0.030324567,0.053549851,0.170507115,0.053033679,0.113899551,-0.056098443
-0.004571319,0.03143201,0.35590861,-0.295887722,0.104402414,-0.012307083
-0.080775155,-0.010683569,0.255978826,-0.106402723,0.232780766,0.096075521
0.049350988,-0.185259334,-0.357307549,0.101412197,0.099274171,0.109942101
0.030209404,0.088576234,-0.137248985,-0.000899062,0.086269001,-0.017261184
0.420571071,-0.012758102,0.690811849,0.086615074,0.057954706,-0.032705929
0.091172957,-0.275600479,0.054849038,0.061033848,-0.140706695,-0.047308504
0.348859594,-0.26461689,0.131905762,-0.013235559,-0.197476303,-0.163975017
-0.027739014,0.054754396,-0.065972707,0.032435233,0.172286351,0.065426089
0.040484371,-0.009115968,0.023497426,0.003392448,-0.22062746,0.0132965
-0.096178392,0.007114773,0.067541771,0.062716025,-0.023870718,0.139797822
0.161642683,-0.125537844,0.152807007,-0.072885332,0.21167744,-0.18110382
0.029845934,-0.022532105,-0.105632972,10.27171297,0.08875239,2.920587341
0.140338903,-0.051902289,0.071667397,2.463432923,0.201317916,0.470877732
-0.102067418,0.052367349,-0.125581362,-7.595332434,0.045678494,-0.244444916
0.250227546,0.088422996,0.238643601,-0.057648552,0.111004176,-0.696686652
0.070289462,-0.061578195,-0.009334146,2.199833023,-0.056112969,2.835154187
0.215462332,0.068351592,-0.124447653,-1.87876626,0.045303359,-2.246756399
-0.073936744,0.095393645,0.099167537,-0.610070638,0.0629051,-0.942533989
-0.022586306,-0.043623602,0.00306125,-0.862738666,0.095218593,-1.545963719
0.044042899,0.008665485,0.28567862,9.544749277,0.035032336,-11.92639281
0.193433753,-0.128902047,0.146830187,-0.276080631,0.166392775,1.776480594
0.167526019,0.179868603,-0.173658254,-0.931373299,-0.039965961,-10.25855162
0.00689612,0.104289096,0.050023948,13.36211579,0.087497134,1.823577143
-0.180905894,0.000844431,0.052459039,3.305169188,0.086979725,-6.816747398
0.173437145,0.09079801,-0.201536865,10.28026797,0.437406245,6.412829012
0.048558321,0.10261082,0.053393196,2.46498178,0.440125605,-7.844995102
0.182740659,-0.120636885,-0.051116884,-7.594479829,0.291564879,-0.175919431
0.02510774,0.05363153,0.160252522,-0.06061026,0.223308088,-4.742272824
0.056610603,0.04802119,-0.11932299,2.203740715,0.067262489,-3.552136213
-0.034972976,-0.112663575,0.340067398,-1.881412223,-0.277739439,1.95916889
0.061413908,-0.036460867,-0.143776254,-0.597703738,0.003665879,-0.603305719
0.06465348,-0.073276703,-0.096429371,-0.86725095,-0.175726925,8.39443253
-0.032273097,0.181815119,0.229653612,9.548392135,-0.137862187,7.962709281
-0.096641192,-0.0395644,-0.092718608,-0.262965517,0.197835875,0.608425136
0.042799418,-0.014555592,0.029730279,-0.924819577,1.448396516,1.051723727
-0.006918593,-0.066448836,-0.044487105,13.37111399,-0.675237064,2.4082476
0.041174392,0.129088966,-0.11158356,3.295310765,-0.036554384,-1.451558042
0.152242214,0.024508346,-0.309679309,0.192372209,0.084128507,-0.051283739
0.121141583,-0.007692482,-0.093289317,-0.249728897,0.025676502,-0.153405095
0.085056642,0.056652269,-0.020685014,0.121820284,0.059657873,-0.140145551
-0.126296268,0.067488123,0.083499317,0.354999472,-0.093035111,0.151700128
0.036751714,0.030379143,-0.001654287,-0.136189878,-0.044494655,0.085565825
0.006594094,-0.024230037,0.027053236,-0.33060034,0.082346099,0.225497873
-0.067536342,0.05946178,-0.22594314,0.095241801,-0.006708576,0.076755607
0.620185769,-0.011122602,-0.255044812,0.030079989,-0.141494046,-0.069645551
-0.047787468,-0.052571987,0.453763606,0.093920615,-0.132848778,-0.389143187
0.263822412,0.009281638,0.023168383,-0.1770085,-0.012375252,0.206759559
0.14985716,0.058273252,-0.49152988,-0.502967495,0.044004056,-0.035197827
0.367615607,0.069080542,0.078269982,0.040003011,-0.146413545,0.166598217
-0.394783619,-0.035872581,0.174134934,-0.111445077,0.092382773,-0.132005571
-0.54173545,0.004280415,-0.051819307,8.310884458,-0.034678486,0.035971838
0.106558155,-0.015048166,-0.174175676,1.894247873,0.043106647,-0.059321999
0.101249193,0.023401237,-0.298642341,-5.991260714,0.132764961,-0.037038794
-0.048721368,0.085233971,0.394355126,0.052000683,0.20315992,0.074474435
0.231685877,0.1078168,0.374746325,1.846263932,0.076583577,0.024034481
0.075775437,0.035742357,-0.156417387,-1.527040116,-0.007333569,0.011584567
0.477061537,-0.022429678,-0.196874907,-0.429059558,-0.158097212,-0.009706231
0.093342166,0.049731214,-0.032944441,-0.582727926,3.01E-05,-0.169229202
0.232427299,0.059573512,0.070324397,7.693796858,0.072526384,0.034638325
-0.233002836,-0.008077263,-0.075034723,-0.236627142,0.112605704,0.066999568
-0.156936615,-0.004965017,0.087905554,-0.699005218,-0.084947292,0.09256643
-0.154438068,0.034891389,0.01233491,10.92691934,0.189834313,0.041796892
-0.065709294,0.115499622,-0.061744497,2.713788473,0.16272765,-0.049946067
-0.108784441,-0.031584363,0.167154708,0.180646254,0.042214999,0.038450771
15.76490879,-0.026339307,-0.022820749,-0.014408271,0.02193772,-0.076269725
-21.08998677,-0.102464419,-0.146623812,-0.083404909,-0.11926631,-0.009346157
-5.148788019,-0.060041051,-0.061818931,-0.062201633,0.010177175,0.138623196
1.359315935,0.175332428,0.036035964,-0.038603612,-0.119095055,0.022188954
3.437499494,0.062363194,0.029952354,-0.167736651,-0.016265751,-0.002875082
4.969814298,0.165613781,0.111691911,0.085230934,-0.22810262,-0.156151061
-4.528192936,0.028153206,-0.117103754,-0.03142672,0.057841767,-0.244251608
3.103684804,0.053376138,0.019026507,0.035186122,-0.006625388,-0.132408247
0.400474153,-0.027117942,0.083353041,-0.038403169,0.127335227,0.01941713
-2.217882942,0.070012742,-0.033318005,0.055127655,3.242516076,-0.197799819
8.976570578,0.061783855,0.060762359,0.080744859,-2.612313216,-0.114453281
-11.97563076,-0.031474451,-0.029583766,0.016069578,0.167641551,0.277286347
-2.954664776,-0.085976086,-0.180643943,0.203308995,0.839380195,0.097305033
0.87701545,0.172014069,0.138039188,-0.066659711,3.721232623,0.060513317
1.916644379,0.068783327,0.046636596,0.008903646,-1.385914794,0.156986946
2.758710801,0.163054488,0.260748625,-0.070389664,-1.736280666,0.194377153
-2.472136662,-0.003783648,0.160698375,0.109031823,-1.942677578,0.028859247
1.720560307,0.09190316,0.078936061,-0.197786887,4.658139771,-0.041780673
0.375121839,-0.045992955,0.050701113,0.166734526,-0.037045081,0.100066092
-1.29723534,0.078638122,0.214508152,-0.003885869,5.278034697,-0.195790465
8.985756073,0.067179172,-0.256492629,0.012935505,-1.88001537,-0.066783376
-11.96844958,-0.050946066,0.170323658,0.088074956,1.332490808,0.076907023
-2.94835376,-0.08012901,0.035142322,-0.112989739,3.556256334,-0.045613677
0.879128334,0.073636972,-0.043473546,0.029906294,0.072461305,-0.103649073
1.927840484,0.033067324,-0.024440842,0.002162121,-1.898127427,-0.030677849
2.744888738,0.139617813,-0.152716911,0.158504106,-1.24697091,0.032639672
-2.490383624,0.043670981,-0.00642959,0.313702862,0.27994922,-0.012869287
1.716028501,-0.005417599,1.240782935,-0.352698183,-0.590792233,0.108495489
0.371461602,-0.035907923,0.449924115,-0.015853641,-0.351438407,0.04888411
-1.301699815,0.031113456,0.957988941,0.072294542,-0.213367804,-0.13940565
4.744853227,-0.014430966,1.796711386,-0.186675136,-0.840062555,0.01179636
-5.874828645,-0.01823888,-0.637520494,-0.08458416,-0.338005933,0.127319797
-1.179089478,-0.105500126,0.784765063,-0.014658372,-0.648437043,-0.129117624
0.449771901,0.451952108,1.531061768,-0.266376273,2.135483756,-0.0576941
0.981655619,0.208319842,0.22294636,-0.243190759,-2.268926888,-0.123091651
1.346007448,0.642868348,0.398924954,0.031315608,-0.254065965,0.057321045
-1.293918414,0.022945781,0.928007974,0.052157375,1.346059342,0.03861754
0.814184787,0.113313605,0.25356343,0.269929646,1.865412243,0.036389176
0.249204645,-0.406432429,0.754300209,0.194580551,-1.392674367,-0.008658801
-0.564783523,-0.342158573,0.506477776,0.056451367,0.393828971,0.050446322
8.006180495,-0.235012772,0.611170859,-0.078044151,-0.992745475,0.007012857
-10.64417451,-0.089521718,0.836351281,0.003550173,2.028655733,-0.051347712
-2.596961289,-0.17540848,-0.64640916,0.079206911,-0.315375745,0.003133898
0.703182071,0.064781536,0.354094163,-0.250984465,2.585733324,-0.079736351
1.654659477,0.074869745,1.122010259,0.028389999,-0.301647709,0.004555476
2.454293389,0.017579971,0.464405651,0.068748955,0.138436398,-0.011151117
-2.221176006,0.05518471,0.159351473,0.127677938,-0.109275056,-0.009405165
1.606271414,0.007490293,0.752599124,0.033705075,-0.074560587,0.127352128
0.371944254,-0.098499495,0.163054036,0.00461024,-0.06299459,-0.089426282
-1.213239716,0.075212056,0.346677913,0.089183361,0.161130251,0.054901355
0.206458747,0.024786408,-0.119654019,-0.096928338,0.066433505,0.046622998
0.148196549,0.093844134,-0.114502235,22.18124618,0.046365214,-0.033394452
0.63096764,0.060921301,0.108012734,4.270256975,-0.141971652,0.03608678
0.029284717,0.114411049,-0.048631708,-10.95125441,-0.133436241,0.02342608
0.180049388,-0.151007314,0.204834088,1.366685432,-0.0523157,-0.070079272
-0.16516238,0.008718679,0.250129057,0.873238094,0.134717077,0.0819133
-0.127569894,0.152701708,-0.213322842,-2.736374037,0.080964169,-0.022052595
-0.157411931,-0.055294499,-0.228939551,22.47835299,0.057356108,-0.03410673
-0.119199325,0.136638517,0.050821999,11.87790036,0.010608667,-0.046852572
-0.07015682,-0.008321355,-0.074207977,14.31412743,0.046604301,-0.108035489
0.014529365,0.318762051,0.125757789,-17.6817013,0.062702182,-0.027912342
0.006025789,-0.143688181,0.116894187,8.014638476,0.028517955,7.798101114
0.051378765,0.051986163,0.216486396,46.83777725,0.004659205,-7.722076357
-0.039471329,0.050790994,0.137657569,15.7845126,0.155794604,0.385187575
0.12339114,0.005301162,-0.207358325,0.084707799,0.010982468,1.509966639
-0.017117168,0.108830461,0.096156227,-0.140517075,-0.051383283,10.16558343
0.052482407,0.072925887,0.105647925,0.075961277,-0.086521689,-3.433070228
0.036150324,-0.005114418,-0.04150614,0.065851478,0.111896448,-6.848463409
-0.094448364,-0.155634603,-0.050473314,0.074782538,0.087776977,-5.349702818
-0.018128271,0.055100467,0.048522777,0.060033488,0.154413922,15.70452998
0.026472847,-0.056243667,-0.00579895,0.152865569,-0.043814839,-1.196697131
-0.033455418,0.030998971,0.019827246,0.15634601,-0.116619729,14.37841799
0.044950528,-0.013513869,0.094462274,0.002737187,0.228302545,-6.807909015
0.126018345,0.008316798,0.146523917,-0.129653423,0.229909053,5.087730027
-0.013365854,-0.011140132,0.077005577,0.077107345,-0.189950613,-5.077358887
0.111873408,0.00743493,-0.084171367,-0.09801704,-0.002444881,0.261140778
0.033888901,-0.047520461,0.06323819,-0.094109203,-0.044686499,0.96195679
0.098916073,-0.192097693,0.150280535,0.224616757,0.227527146,6.568314741
-0.08495793,-0.040053275,-0.146840075,-0.080281001,0.044233703,-2.262739976
0.002849835,0.047236469,-0.036353059,-0.077205683,-0.030201523,-4.524692317
0.187322657,0.059552924,-0.106399988,0.166222304,-0.053448494,-3.481998513
0.082254127,0.058329817,0.042730383,0.150042531,0.610234144,10.33296614
0.506705653,0.037518725,0.175156161,-0.164976425,-0.277257461,-0.71733436
-0.019721437,0.058804268,0.015048419,-0.301757695,0.064736732,9.41394037
-0.027783549,0.055522268,-0.133837531,-0.089438935,0.403838932,-4.172484211
-0.249228596,0.051370002,0.017951299,-0.055496512,0.276858455,3.52522326
0.112840448,0.080156201,0.052769968,0.022607878,-0.380586273,-3.510270585
-0.10582311,-0.135099155,0.095932455,0.094148573,-0.382193675,0.225850686
-0.156107802,-0.132797881,0.162735777,0.151476845,-0.222135206,0.730760277
0.141892952,-0.022707364,0.124792985,-0.133807776,0.330787594,4.631691045
0.17640165,-0.001552972,0.079811685,0.121964985,-0.131869508,-1.569375751
0.083067099,-0.040938692,-0.103017903,-0.007243794,0.696716904,-3.11943376
0.164912665,-0.0539458,0.167058493,0.019939746,0.112743897,-2.480665751
0.065400979,8.980650959,0.390847102,-0.01893657,0.200198412,7.133929473
0.114079705,-11.96962768,-0.184254388,0.05735886,-0.063103068,-0.488252384
-0.14024318,-2.95077682,-0.289935054,-0.210072523,0.16106471,6.633021406
-0.134849774,0.881792097,0.366053329,0.043545084,0.140895283,-2.983902228
0.013427576,1.915925332,-0.278968885,-0.060086024,0.087408499,0.061130438
-0.072995739,2.755109561,0.284199845,0.266085897,-0.095071246,0.024260294
-0.040965428,-2.479988222,0.291767083,0.059654774,-0.163570437,0.006029855
-0.070127492,1.716302644,-0.13208769,-0.085472997,-0.216182706,0.132966499
-0.039913659,0.374538101,-0.204513593,-0.212687009,-0.111912922,0.164367574
-0.120246654,-1.302273252,-0.216222673,-0.049937604,-0.01665075,-0.22526881
0.285123116,8.983232319,-0.007518924,0.064920559,0.083083217,-0.067203674
0.223692766,-11.96589116,0.208655332,0.03465346,0.026097966,-0.008470489
0.087913233,-2.944863428,-0.037549301,-0.114259508,0.284670529,-0.097684214
0.01607816,0.877703563,-0.049032925,0.131220834,-0.18895465,-0.001668376
0.232926455,1.91486738,0.083755436,-0.037257747,-0.036794841,0.031602811
-0.104538046,2.754149499,-0.198672427,0.224550197,0.083267312,0.156169536
0.040651709,-2.472424326,0.219164392,0.121476515,0.104676947,4.653041393
0.010469768,1.717660283,-0.046984624,-0.266191719,-0.098036258,-4.182891772
-0.023170123,0.370558665,-0.220774105,0.159477091,-0.233929706,0.323495224
-0.00259525,-1.305899088,0.045872192,0.020786989,-0.008626694,0.935128515
0.161161298,0.077172056,-0.006123367,0.124734772,0.299522585,5.844634079
-0.160916594,0.003434335,-0.040476157,-0.124329067,0.105082507,-2.229837372
-0.07366234,0.045704289,0.269327539,0.127279194,0.382134739,-3.606510008
-0.040834092,-0.265961392,0.040889708,0.094554045,-0.239054871,-2.890312142
-0.001496488,-0.068122355,-0.016281942,0.043094583,0.057044898,7.834951624
-0.032353649,0.201091765,0.178763249,-0.029680177,-0.002790881,-0.9541063
0.012112286,0.007904215,-0.193812347,-0.059468763,0.097336844,7.417354628
0.006938393,0.21088948,0.18398276,-0.069971833,0.109238834,-3.736575455
-0.013110521,0.092769531,0.303486439,-0.065324847,0.015860531,1.922592793
-0.045404874,0.235340637,-0.096803021,0.201689814,-0.017164361,-1.803196075
0.192084256,7.265900905,0.084272451,0.051750682,-0.039686281,0.367840183
0.104595637,-9.704076293,-0.162138587,0.171448667,-0.110444368,0.969487548
-0.19249368,-2.34128793,-0.180680639,0.016164067,-0.030458056,2.435276282
-0.028933969,0.598168454,0.066203198,-0.075499866,-0.098177038,-1.271897631
-0.229185603,1.579184875,0.129796789,0.154784305,0.046425608,-1.144466061
-0.02412905,2.210086856,0.059899531,-0.313850166,0.103475978,-0.964278891
0.006253328,-2.037531563,0.167657862,0.063891447,0.056284754,2.166338767
0.065892075,1.470747304,-0.050222353,0.029024464,-0.026111019,-1.081890883
0.095961,0.44388296,0.05078632,-0.101319781,0.008085571,2.831489591
-0.014668028,-1.079653853,-0.005346297,0.079562381,0.095799957,-0.569318231
0.065847799,0.083088187,-0.185468091,-0.029637595,-0.052430273,8.282725832
0.007409077,-0.013835081,0.06731529,0.0729902,-0.04004281,-5.424010061
-0.14010798,0.041352703,0.065809859,0.004726793,0.088680053,-0.143403719
-0.14780453,0.009360141,-0.023998382,0.023909421,0.078965836,2.018998419
0.089278402,0.034475466,0.051665074,-0.060377461,0.040948969,0.674591985
-0.000659981,0.069979082,0.111266368,0.036819714,-0.021955317,0.833272378
0.019800772,0.014695113,0.064838506,0.201581714,0.056056551,8.148785322
0.048016366,0.033139333,0.083786743,0.032184072,-0.192529845,-2.969744029
0.029093438,-0.053597217,-0.034983844,0.005467853,4.623193786,6.070257305
0.058897189,0.049745392,0.102137391,0.018836737,-4.237145266,8.904639077
3.235090503,0.081940985,0.199778828,0.160255473,0.606988299,2.460928311
2.113103315,0.014015726,-0.02021661,-0.068857931,3.880367212,3.056015897
1.465645194,0.025151058,0.126232837,0.083290556,6.017849571,4.72525081
0.004456039,-0.121937118,-0.060337972,0.086225865,-3.637227717,-3.071777337
1.690161062,-0.051165058,-0.127895883,0.035803933,-1.30514342,-0.000638664
0.403720027,0.029106197,0.777712658,0.068930605,-2.120526838,1.21573484
0.294019416,-0.036425098,0.150850723,0.045984625,2.200684066,0.245570377
0.167636302,0.093880716,0.820921175,-0.002659735,-5.693925119,0.394085124
0.167722338,-0.112192543,0.685467026,0.050465567,7.101779399,4.681438231
2.289808401,-0.042369034,-0.404968267,-0.068738223,1.967136034,-1.704708778
0.150575497,0.062715108,0.288214174,0.041020723,2.07583983,3.391860055
0.104826021,0.026473844,0.470411938,0.122033527,-2.299285886,4.754088553
0.002975676,0.004070316,0.058682843,-0.056220021,0.807419757,1.376471585
0.019767858,0.22704484,-0.252863073,-0.100641502,-0.167017532,1.726008147
0.553316152,0.063405311,-0.085320527,0.137829824,-0.140909252,4.737874632
0.568178797,-0.189132192,0.234023146,-0.07258584,-0.716725624,-3.064711234
0.072248285,-0.036666131,6.36561087,0.154164469,0.090226236,0.01245584
0.017921364,-0.033430208,-1.178157394,0.055944167,-0.118433512,1.211522044
0.030274169,-0.146239679,0.235796367,0.017426376,0.485230937,0.261357534
0.032345423,-0.158116594,3.986361872,0.269445518,3.023489629,0.387767891
0.00123432,0.084099788,-2.335800152,0.028517499,-0.336903337,4.68336916
-0.023691966,0.010707316,3.960752897,0.025476011,1.50223565,-1.710655665
0.002297476,0.002820115,7.248916746,0.28626774,0.060264867,3.389366251
-0.007286458,0.022324647,-2.771618096,-0.253356503,-0.126859231,4.749820398
0.00586424,0.006171924,-3.301614919,0.20031708,-0.019311919,1.374230851
-0.064148188,-0.030832966,-0.572973395,0.35689687,0.18726086,1.710644758
0.369223442,0.032388294,0.028704909,-0.109390166,-0.106343161,7.906521564
-9.594887953,0.016495664,0.290117935,-0.110358217,0.041523984,-7.037041857
0.238548683,-0.016782962,-0.097503613,0.092401546,-0.022665219,0.286376542
-6.251985199,-0.066607139,-0.196714919,0.113621605,-0.010486231,1.928143237
0.164603204,5.182797468,0.236354748,0.268019092,0.103938554,7.435463593
-4.346916493,6.35696034,0.023511459,-0.006122454,0.150730176,-2.386527931
0.007558352,31.2408429,0.162649898,0.012485792,-0.191523755,-2.277726347
-0.068750666,-1.138776106,0.142970849,0.232858264,0.11834362,-4.438050197
0.259114321,-1.14399126,-0.126145299,-0.297757583,0.100222315,12.14924107
-5.481310211,-9.864517846,-0.13639454,0.246426027,-0.03969256,1.215523283
0.115949777,10.05642151,-0.058593227,0.321435186,0.000166825,10.76411651
-2.487169355,-6.349933147,-0.075254587,-0.127078469,-0.031675763,-3.536310812
0.309468589,-3.19970351,0.081858769,-0.025295727,-0.014259618,4.238306235
-8.069559046,-7.807274863,-0.011689015,0.161245453,0.017970713,-2.753010116
0.180224945,0.047016858,0.082220979,0.098326691,-0.013689537,-0.005265953
-4.591708535,-0.038407216,0.087909732,0.189057653,0.208594899,1.019237299
0.182608003,0.016040197,-0.011419082,-0.122280844,-0.052838769,0.207165452
-4.599006076,-0.068137612,-0.036055772,0.017324385,-0.146728235,0.416893265
0.355033299,-0.006482001,0.15715924,0.144297513,0.067250934,4.133503111
-9.205169055,0.043622068,0.045626646,0.003303037,-0.032497554,-1.441138599
0.164543361,-0.171873097,0.007918176,0.097769751,0.156289105,3.032018046
-4.097915378,0.113735453,-0.189727818,0.074201983,0.120089653,4.264920906
0.338251255,0.013010111,-0.251684134,-0.045893603,0.097519954,1.195585366
-8.91378158,0.066833019,0.112362624,-0.037602561,0.081651535,1.527500169
0.002791644,0.079237427,0.072207448,-0.086915229,-0.081090063,10.04996522
-0.040157204,0.060454297,0.063542857,-0.00419824,-0.065101148,-12.01678096
0.002167415,0.02394469,0.210305826,1.047526248,0.017455754,-4.226911757
-0.086211998,-0.154689612,-0.073291443,-0.127170131,-0.074293812,13.34931313
0.221623431,0.012035371,0.18477374,0.158624882,-0.043390971,3.485759293
-5.817378618,0.0752305,0.16147859,0.271797604,-0.18386783,-10.73513847
0.179406448,0.056187797,-0.171930097,-0.219438853,0.022201957,18.56688891
-4.363682141,-0.240706111,-0.123897206,0.304735999,-0.02169907,-0.435484839
-0.009631949,0.077861923,-0.149229062,0.776194204,0.108648762,-8.015091958
-0.160523836,-0.096617969,0.083046621,-0.243553181,0.141046298,-2.503049829
0.002094841,0.038987677,0.078961431,-0.120086245,0.042811691,5.258229288
-0.081753506,0.081324542,-0.052966456,-0.237219566,-0.055355277,8.306465546
0.003223675,-0.025766082,0.093200397,0.482936587,-0.017794268,0.049541495
-0.130581367,0.006157061,-0.024025353,0.07458451,0.09975814,-0.026944553
0.025737493,-0.060177548,-0.109041709,-0.058336843,0.099745573,0.082586556
-0.077673406,0.06760331,0.087603311,-0.031110638,-0.028899487,0.014822225
0.218110427,0.047888935,0.109528074,0.126924801,0.064715115,0.082967278
0.133008843,0.005980743,0.034709271,-0.03881701,0.142617734,-0.105546499
0.162363747,0.031117662,0.143179501,0.281797074,-0.219881996,-0.044582888
0.08361275,0.03031772,0.158221279,-0.014744528,-0.048176837,-0.046163161
0.085157363,0.055003691,-0.126211683,-0.063092621,0.33270954,-0.012535914
0.151337801,-0.036869108,0.236456185,0.195459564,0.142313367,0.151392169
3.042195796,0.004219859,0.564510365,-0.065407742,-0.102601186,0.087389081
-0.046774613,0.044435429,0.686030369,0.026312241,-0.159626727,0.182054295
1.987436177,0.007643816,0.768205761,0.1581272,0.001526911,0.069770108
-0.026942333,0.004889537,0.191126604,0.239268263,0.026510524,-0.07041755
1.378462915,-0.029857003,0.120570274,0.017956493,0.190372813,0.000345629
-0.015380141,0.021864247,0.701944824,0.514920771,-0.114628414,0.10195877
0.003149849,0.097182676,0.15685911,-0.156436947,0.205203323,0.065290415
0.009873485,0.15003308,0.521071468,-0.057362424,-0.293565766,-0.025286984
1.580837892,0.04220402,0.794527912,-0.023604664,0.070736755,-0.12696442
0.096286116,0.008279546,-0.101713068,0.075426987,-0.14934858,-0.042810708
0.363256999,0.058276443,0.112831842,-0.057622226,0.259419741,0.087073656
0.074134988,0.050613403,0.003981865,0.222652184,0.008797403,-0.100182527
0.013914549,-0.066918348,0.248901046,0.06892205,0.593486198,0.215304431
0.331415282,0.009699662,0.303858589,0.093327757,0.671207045,0.253390085
0.008180668,0.102455162,-0.000707771,0.003736871,-0.00157013,6.196835026
0.190701285,0.164110107,0.164018944,0.007505035,0.362426586,-7.205992338
0.008107211,0.040157687,0.003763581,0.079534719,0.008295006,-2.131138152
0.192270162,-0.010747094,0.001263918,0.020141782,0.002790391,6.834214539
2.075237246,0.03473369,0.001616951,0.184161663,0.003553025,3.059241168
0.10754089,0.001389464,0.004456502,0.129133482,0.009793303,-5.763373457
0.008362074,0.002945195,0.00136309,-0.105759673,0.002993805,8.496175397
0.172805257,1.463951023,0.018031731,-0.233024833,0.03981998,-1.142684539
0.054144253,1.565241818,0.000853892,-0.059164778,0.001883912,-1.883614781
6.155165731,0.005748111,0.000526103,0.181033337,0.001150026,-1.31312495
0.002098698,0.142541324,0.001472449,0.013688387,0.002231083,4.508451551
0.006672694,0.002347007,0.005255502,-0.202288295,0.011244044,3.196167493
0.018027298,0.034228653,-0.000243805,0.093185608,-0.000542175,3.128458682
0.003815937,0.002588186,0.001203744,0.129873285,0.002641378,-3.090595331
0.500498756,0.002137873,0.001004075,0.179340225,0.002219384,0.485330479
3.120487797,0.004080196,0.000681324,0.060179115,0.001496196,2.007564689
0.50112389,0.167807002,0.51463022,-0.066385181,1.008191284,4.219932592
0.10074228,0.168089569,0.157682678,0.119539706,0.273354267,-2.267652451
0.069304103,0.054203264,0.006085018,-0.109773294,0.008225808,-1.843432315
-0.010177606,0.138818788,0.390150591,-0.002321544,0.583936552,-1.793598285
0.016772131,0.087611769,0.465030763,-0.085893171,0.627532261,3.672838523
-0.001027278,0.006946001,-0.001136795,0.082774396,-0.001577637,-2.578611162
0.028039444,0.033538672,0.251108478,0.090304532,0.338948051,5.35160616
0.003420853,0.008751121,0.005758547,-0.040860398,0.007743179,-0.294705668
0.029959274,87.45947196,0.001926283,0.074301086,0.002601155,0.069873544
0.007332102,0.018959643,0.002465045,0.056084791,0.003306399,-0.191490215
0.087666542,0.0230864,0.006828997,0.080674936,0.009092844,0.163802676
0.085801641,0.022963238,0.002081962,0.071028406,0.002787352,0.303404529
-0.095439889,0.063425268,0.027587116,-0.106104627,0.037221469,0.126520454
-0.045631598,0.037796252,0.001301268,-0.312745894,0.001754986,-0.073192504
0.086036335,0.002098508,0.000797825,0.029939486,0.001069616,-0.462097521
0.061319282,-0.025467249,0.002438154,0.001598863,0.001396935,-0.230837026
-0.003514842,0.018331883,0.007724429,9.724321628,0.010118276,0.147736974
-0.036324319,-0.003505306,-0.000376354,11.48309027,-0.000521242,-0.128398592
0.025397804,0.015605338,0.001843656,15.13083637,0.002458741,0.289222017
0.093450986,-0.050003686,0.001524198,23.76654464,0.002058771,-0.01160484
-0.160655262,0.16638998,0.001037875,-2.589082913,0.001400572,0.031731045
-0.027802781,-4.329038768,0.738303199,4.896887229,0.939331166,-0.012681069
0.034230163,0.175457407,0.256474174,18.35918271,0.080620576,-0.123364497
0.020793489,-4.622616779,0.008795266,3.443689872,-0.009236474,0.148487116
-0.017005901,0.01470793,0.576318549,11.74109415,0.062212338,0.064504965
-0.000184967,-0.095996697,0.670530895,21.01062483,0.043728501,0.029262614
0.004655885,0.457568298,-0.001715297,-3.697488646,0.125531176,-0.017858281
-0.008721803,-10.89248372,0.362163727,9.72686771,-0.039586206,-0.179485253
0.034638659,0.019832915,0.008294649,11.4807274,0.053483053,0.103592293
-0.009566152,-0.042516365,0.002792558,15.12576742,-0.009161321,-0.160367412
-0.047185677,0.006237585,0.003559635,23.76582235,-0.038428458,0.133507055
0.037999268,-0.159276117,0.009828424,-2.598968171,0.055881598,-0.065880406
-0.067105043,0.008554294,0.003003945,4.903287945,0.16421654,0.063588563
0.042846578,-0.057611289,0.039784187,18.37466293,-0.12813065,-0.006284063
0.08400433,0.003133196,0.001885596,3.430274364,0.100693648,0.120334789
0.100068985,-0.089959671,0.001151878,11.73374289,0.016605549,0.263915003
-0.022943835,0.017301632,0.002786819,21.00817513,-0.007575459,0.214620264
0.012211292,-0.037997817,0.01143353,-3.708697141,0.002852629,-0.186791125
0.088192443,0.18163477,-0.000535448,0.176777334,-0.036484554,0.15596378
0.022818165,-4.596144464,0.002641668,-0.285940851,0.015396452,-0.285162027
-0.075952929,0.182641986,0.002219668,0.205384348,-0.033710477,0.098609257
-0.015988881,-4.604333465,0.001489071,0.127625917,0.119094806,-0.122582347
-0.036949176,0.037132899,0.994401245,-0.148663441,-0.036994553,0.235752257
0.004361203,-0.744746486,0.051023898,-0.000703862,-0.029761968,-0.222157305
-0.042050389,0.145389296,-0.025811577,0.029071396,0.043184517,0.14021829
0.064100121,-3.775522438,-0.094015922,0.440490936,-0.151102335,0.051838237
12.74714898,0.011546405,0.01997301,0.339403777,0.143822908,0.052681867
-16.98335947,-0.056861986,0.019117991,-0.052467669,0.045446564,-0.121823209
-2.466447853,0.0161581,-0.00413914,-0.099428709,0.04820539,0.096765804
1.494211873,-0.063433783,0.006266661,7.858363793,0.223900064,-0.067346544
11.52369244,0.022803927,-0.004123562,9.152500254,0.146983112,-0.157295455
5.051880208,-0.283685381,0.009344471,12.29784189,-0.105447045,-0.220333585
-4.790639992,0.015942737,-0.005226876,19.22853089,0.108729286,0.139933399
3.984394307,-0.055553917,-0.100447857,-2.215497854,0.004885082,-0.183057837
-0.872615917,9.20515178,0.114221325,3.989070377,0.097803023,0.293495051
-1.798495072,-265.4031777,0.004795969,14.89994744,0.103397863,-0.200801235
4.707583757,0.005699231,-0.026624945,2.867331748,0.189880672,0.222713812
0.740397627,-0.103613465,0.102692763,9.491923239,-0.079472321,0.144953112
8.3254733,0.023983202,0.045552521,16.96588263,4.941775809,0.1884199
-11.10345741,-0.149834685,-0.022629391,-2.996534365,-3.189135114,2.20936938
-1.559575958,0.01606195,0.071420704,0.115025183,-5.061749296,1.443374038
0.908391124,0.002500978,-0.113174037,0.063617623,-2.58233268,1.001081204
7.549571438,0.004980004,-0.100390056,0.139810221,-5.000371718,0.002316937
3.249189178,-0.012654544,0.029355819,0.166770264,2.05423,1.148038986
-3.119558148,0.007170528,-0.125261582,-0.130123584,-9.07534207,0.263477006
2.675803047,-0.03129105,0.141204184,0.03318511,2.214984781,0.018505559
-0.468148004,0.181291915,0.082051822,0.092298187,-2.962349596,0.010720989
-1.181088257,0.13800983,-0.02162225,-0.060048772,-1.209718958,0.010666975
3.084938167,0.000539478,0.062094561,-0.111194073,-3.625550768,1.509330845
0.328343125,0.002241309,-0.098573974,0.139800663,-5.426188724,0.010319123
5.773753889,0.001867892,0.045876195,-0.143140485,0.341516308,0.032300592
-7.713577849,0.011594472,0.117760922,0.100377219,-0.968326268,0.001503208
-1.089552911,1.376958584,0.036376692,-0.07811178,-1.519646073,0.013088338
0.656439514,-0.019780782,0.089359547,0.070598234,2.480631223,0.35978317
5.192784424,1.472512618,-0.066364082,0.137311379,2.511348413,0.363537456
2.319579665,-0.019577332,0.056555311,-0.0994217,-0.37353507,0.050367231
-2.150334354,0.0041735,4.675126002,-0.076508815,3.245578707,0.01216473
1.820486123,0.013048177,0.817251288,0.207701543,-0.216454008,0.020387258
-0.356862541,0.003848184,0.789787586,-0.056945548,-0.574550021,0.021765791
-0.836605097,0.408054131,0.639079186,-0.004503163,1.026968619,0.207621215
2.095704439,0.00108388,0.226026345,0.19091237,1.190411907,0.144813953
0.253124295,0.007896139,-2.52812883,-0.153597493,-1.4332489,0.177462436
0.030471095,0.030266718,-0.106494449,0.132021191,2.757928342,2.06598929
0.042608511,0.002502415,-0.612019784,0.190302136,-1.668939808,1.349705039
0.135561342,0.001368816,-2.50547621,-0.1953854,-2.818741695,0.936115877
-0.001341578,0.009419087,-0.793499602,0.239786988,-1.74598458,0.002152722
0.004590241,0.00111637,-1.510978862,0.141418284,-2.896406972,1.073475313
0.06430609,0.007451166,0.405034733,-0.073128158,0.831226465,0.246238963
-0.100308683,0.003224324,0.078077154,-0.018516471,-5.229910586,0.015528073
-0.013644831,0.008538141,0.252747545,0.069859422,1.433254238,0.009008449
0.110940655,0.008279255,0.416971421,-0.227366927,-1.384144661,0.008956705
-0.010545911,0.190893719,-0.27583499,0.195777932,-0.454550787,1.410845866
-0.140845754,0.00844183,-0.427007148,0.520521102,-2.328544133,0.008742514
-0.008276713,0.193447421,0.093952883,0.115369545,-2.230888277,0.030756706
6.813901873,0.041691732,0.747361569,0.012315144,0.107741057,0.001401681
-8.274349303,0.036282945,-0.426308811,0.019526685,-0.118617486,0.012226147
-0.937460594,0.008906967,-0.340130157,0.19992691,0.029949538,0.336740235
1.101151732,0.167808412,0.716635091,-0.012574015,-0.007741141,0.339666809
5.528307489,0.249779343,2.739265256,0.086821429,0.053006919,0.047111833
2.549411476,0.304236814,0.389628734,0.068757852,-0.108749325,0.011370233
-2.546912114,0.005252699,0.696801625,0.023053808,-0.057282209,0.019065138
1.927939012,0.011598924,0.073140858,0.026423161,0.042659556,0.020344173
-0.667970111,0.028408262,-0.051557278,0.100674805,-0.064714865,0.065315187
-1.009184762,0.019006903,-1.843099665,-0.158004154,-0.004440504,0.128014234
1.811219365,0.00704523,-0.093353375,22.3879229,0.062164715,-0.029867916
0.7151912,0.00280507,-0.55131811,-17.77297313,-0.007081087,-0.051852082
2.142356662,82.27225336,-1.507526553,-14.1953747,0.0362376,0.099964535
-1.035437706,-2.461831893,-0.321575838,-3.731763004,-0.002707619,0.044958192
1.199426747,0.016844363,-1.308702282,-9.638524951,0.027140636,0.058438469
0.417399842,0.004854729,0.166111931,15.05480876,0.011546189,0.018111597
-2.190998989,0.019718058,-0.051044166,17.76564687,0.024240093,-0.012000191
-2.437033293,0.017662937,-0.022371204,-16.73773115,-0.041635231,0.062984138
0.830330056,0.061003104,0.045232905,-29.00933758,-0.023512975,0.118855504
-1.873981582,0.141907662,0.055999842,-24.01453974,-0.022189485,-0.0631376
0.182296153,0.121939538,0.024495042,5.363514922,0.023883497,0.045796902
0.521549502,0.047461546,0.019550374,0.029739369,0.191424696,0.052300539
-0.818260646,0.202379764,-0.083334579,-0.139083848,-0.031410196,0.025367527
-1.440637847,0.194569382,0.128633152,0.194706307,-0.062170804,0.040974998
3.975597034,0.040379348,-0.086205847,0.105187696,0.093378798,0.025829546
20.26691703,0.038416579,-0.011720687,-0.167595397,0.094002368,0.007204009
0.590568647,0.029351376,0.061284238,0.018331555,0.045871218,0.021951306
4.112307434,-0.010533555,0.042828987,0.03678807,0.123016899,-0.050893091
17.01861234,0.041498952,-0.079980344,-0.025439136,0.108649833,0.049123945
14.34940874,0.012878293,0.104246805,0.175911985,0.087365313,0.025393296
-4.91398351,-0.052369512,-0.028385072,0.034368028,0.047891292,0.057098141
5.38857562,-0.003254946,-0.039185493,0.098467988,0.026346916,-0.133731839
-20.28410658,0.032427433,0.028865325,0.088046192,0.039962766,0.054221421
4.249966918,0.018579035,-0.011612538,-0.092183526,-0.025555601,0.020368638
-4.798579406,-0.035199656,0.027671242,0.057882932,-0.206138396,-0.031016548
-7.286145156,-0.067612362,-0.043031659,-0.012379945,0.16465009,0.051571538
2.265872234,0.019033108,0.096701858,-0.030942566,0.213231159,0.117693581
11.5409493,0.045350462,0.167279768,0.091997525,0.181650421,0.049909821
0.316624364,0.03364199,0.069515268,0.445465429,0.116385263,0.032299195
2.275397594,-0.044420176,0.125563952,0.318097549,0.369334763,-0.050870994
9.761319681,-0.025786606,0.073970675,0.050232474,0.162651037,0.020375855
8.141991815,-0.019843724,-0.016526747,-0.017488186,-0.049362325,-0.058663771
-2.790391158,0.009252387,-0.038165855,0.05109918,0.18290385,0.013389385
2.974556559,-0.027599466,-0.077688338,0.036740954,0.131026515,0.095409433
-11.45530011,-0.023311421,-0.022935603,-0.028886623,0.022308348,14.89618818
2.419385193,0.038930949,-0.095760546,0.081867301,0.167281368,-10.8137754
-2.848243435,0.007258711,-0.063571167,0.10295461,0.021687783,-17.68280419
-4.053600569,0.014774001,0.038068893,0.050512187,-0.078948214,-11.99325229
2.268795909,0.026610074,0.584826291,-0.001790971,0.088527948,-18.59999524
11.55063617,0.041406942,0.122349651,0.039788859,0.095529734,6.462209116
0.318925106,-0.026165768,0.12921915,-0.103117853,0.065137378,-32.38494198
2.280736054,-0.071553024,-0.017058034,0.074306707,0.174022804,8.510431305
9.744874672,-0.079893002,-0.092385569,-0.063118786,0.081718634,-11.06885955
8.145935702,0.015138325,-0.247029461,-0.274261318,-0.178358699,-5.182735918
-2.795700257,0.055900456,0.148923168,0.04347892,0.025606961,-11.26462465
2.974801562,0.027000852,0.130744122,0.137054799,0.040040187,-20.08124507
-11.45694885,-0.019127684,-0.234671257,0.199527133,0.081157493,9.720737966
2.41355561,-0.018215087,0.019781473,0.105070332,0.029386703,-7.050408379
-2.861484351,-0.015472673,-0.008241734,-0.025796632,0.144657028,-11.60533988
-4.038085145,0.021425703,0.162117682,0.043352306,-0.02946184,-7.865963111
9.980466039,5.764720805,0.10143398,0.24218936,0.330667912,-12.26578376
-5.60072966,-7.712850676,0.016263746,-0.179518103,-0.097679561,4.145040827
-1.105774967,-1.09104518,0.084395085,0.095337821,-0.119906181,-21.10984382
2.218181693,0.651081245,-0.052235946,-0.1143806,0.014092213,5.679898434
11.64827962,5.19049051,-0.104658908,0.192140598,-0.173336943,-7.286594095
6.524734403,2.323369533,0.109085161,0.06563779,0.088333716,-3.457893926
-4.154031415,-2.161062932,0.00801596,0.080405718,-0.514454898,-7.407607749
3.593747487,1.819896661,0.006451444,-0.055643527,0.140837343,-13.06074008
-6.086351288,-0.362642353,-0.042940791,0.102777189,-0.135794121,6.748392284
0.246933579,-0.834997955,-0.156122798,-0.128625335,-0.106845533,-4.858183401
1.270097598,2.100644178,0.367275221,0.177786914,-0.168137927,-8.005985679
-2.058213894,0.246638019,0.081829423,-0.037414889,-0.436464944,-5.426575609
2.026454757,6.160172292,0.047676857,-0.102025528,0.033775731,-8.520833946
10.28549161,-8.269104462,-0.029067607,-0.060540695,0.052728997,2.891583506
0.258350463,-1.169741076,-0.015022486,-0.048072751,-0.051596322,-14.66167731
2.031077194,0.669427312,-0.256249849,-0.273973931,0.084077595,3.886480931
8.666707361,5.531439133,-0.013776856,0.068519352,-0.006767148,-5.08641336
7.246997071,2.482644733,-0.066098705,0.000200913,-0.090129354,-2.305802238
-2.473183451,-2.312802806,-0.074434681,0.000632774,-0.029094676,-5.124039599
2.6917627,1.995082002,-0.079417374,0.452609279,-0.022291005,-9.135058694
-10.20062401,-0.409951999,-0.039429678,0.484014678,0.019037793,0.045076317
2.184786181,-0.88718453,0.05698037,0.001356389,0.112995001,0.046797832
-2.524159818,2.273744039,0.102154216,0.001324714,0.057991909,-0.010006494
-3.585253117,0.278653866,-0.038029808,0.000361808,0.026003008,0.154498859
2.132899802,0.041328046,0.045454859,0.009974899,0.028595456,-0.064313216
2.773004777,0.06509804,0.019408006,0.000428179,0.001243166,-0.06958623
1.441127098,-0.034299921,-0.030450134,0.000365018,0.050119593,0.021854325
-0.516728514,-0.063149194,0.090244043,0.001046473,0.089260275,-0.034162198
-4.564905476,-0.040333278,-0.050577389,0.005655222,0.107257508,-0.099384393
-3.459585581,0.074473061,-0.006229609,0.005707641,-0.041214323,-0.077642894
3.218830591,-0.033033492,-0.042741686,0.014049546,-0.016519,-0.010659428
0.504137891,-0.014128184,0.007675861,0.005295815,0.019899598,0.137331167
5.530318318,-0.016347423,0.078374584,0.171081903,0.03737513,7.980047487
-1.809035038,-0.021960284,0.050000677,0.001739252,0.071203054,-5.664383902
-0.072430298,-0.026915721,-0.048056337,0.009414901,-0.12821756,-9.085776789
7.518084677,0.149883361,0.014173727,0.002330424,0.019289281,-5.581308285
0.02709761,5.360535996,-0.029666633,27.03475016,0.078897769,-9.329011818
0.024032684,7.776668368,-0.065196752,0.005552237,-0.593613132,3.339596069
0.071724646,13.31028211,-0.08830107,0.006530782,0.592093456,-16.32076222
-0.019557018,2.072253543,0.017880828,0.075094149,0.169404727,3.938351902
-0.078531265,-31.69477646,0.042393407,0.115150304,0.517053576,-5.75606764
-0.103548498,-29.33147772,0.063929792,0.10643653,-1.340232185,-2.542999278
-3.86E-05,13.97181731,0.008820415,0.113612676,0.542585425,-5.415637322
0.03503597,-21.93987467,5.010264942,0.000308136,1.506126711,-9.69531147
-0.010419148,2.691684623,0.060620807,0.000967125,-0.503692445,1.897266636
0.041230809,7.784570795,1.28831726,0.692803197,0.513691861,-1.160646882
-0.089666411,-11.11416053,1.877392,0.740875455,0.357441703,-1.631464652
-0.078225714,-17.44273415,-0.436049231,0.0020649,0.751946473,-1.124056277
0.087019648,0.027692059,-2.27317326,0.002364257,1.632708094,-2.103083881
-0.057606081,0.045420483,0.380156486,0.000542247,4.243347186,0.639813086
0.075995902,0.015903038,0.344464196,0.015278685,5.776951986,-3.663057052
-0.005553213,-0.054395561,0.244807731,0.000642928,1.495977694,1.145061277
0.125432088,-0.074884197,0.356045501,0.000563569,2.330893392,-1.421428315
0.063048638,-0.033829553,-0.137812971,0.001601226,1.174460485,-0.462251821
0.052809803,0.056061055,2.374922541,0.007745106,1.899817031,-1.072471512
-0.036489907,-0.037633191,0.294133413,0.007825807,-0.857480391,-2.046783146
0.042677731,-0.013427005,-0.487442355,0.021506889,0.227629448,4.303947
-0.049636965,0.0980599,0.736991486,0.007373455,-0.766026503,1.551314932
-0.025925843,-0.036901686,0.65844981,0.271110025,2.109125084,0.98984906
-0.092257654,0.094609623,0.634158963,0.002666794,0.238132013,10.4149499
2.960983203,0.155766191,-0.060662062,0.014412578,0.052246677,10.8670936
-1.363321084,-0.016497031,-0.765210317,0.003561174,0.288387598,1.462508252
0.00014701,0.12939274,-1.322637962,41.38202154,0.248970295,10.2454458
-0.109026203,0.061524713,-0.391879845,0.008489061,0.07041661,-6.298395928
0.207735453,0.298854911,2.027482653,0.009983826,0.096709821,3.377247323
-0.399491492,0.218633006,0.086393788,0.122075217,0.118736559,0.019431717
0.659174726,-0.038828229,0.051016675,0.140920101,0.031792058,-2.313424544
1.451544395,0.082435769,0.057852611,0.195123334,0.204492517,15.86832458
2.678692747,-0.023390982,-0.050964166,0.18739403,-0.036378068,2.452657688
-1.38901895,-0.026004717,-0.002950888,0.000435124,-0.066311329,0.947970553
0.91114639,-0.030284988,0.088767883,0.00140161,0.112455464,0.476260748
4.369485472,-0.215187355,0.014962454,0.998916745,0.125169103,5.946568993
3.474212108,0.028979507,-0.163248886,1.06823042,0.050264829,6.265955215
-0.820669291,0.062969457,-0.067193103,0.002988646,-0.063153862,0.795603779
3.077848802,0.007817433,0.15432283,0.00220701,0.021404104,5.781018678
0.79725236,0.048745141,-0.002822135,0.000789006,0.074608391,-3.607419238
-6.302898658,-0.044824903,0.082540096,0.022015188,0.043109507,1.927026715
-6.701086354,-0.012232605,-0.01805912,0.000947114,0.002522389,0.072784869
2.831100761,-0.026187868,-0.000376184,0.000790735,0.041982477,-1.253075041
-5.0046857,-0.121676938,-0.029384402,0.002312524,0.007685411,9.053187016
0.510487661,0.022619073,-0.087404276,0.01101925,0.107465361,2.45868958
1.662458821,0.008326423,-0.066381668,0.01113576,0.01033729,0.948682118
-2.186395606,-0.051572748,-0.057810383,0.030969935,0.044568116,0.48383985
-4.432696259,0.038353853,-0.013739441,0.010506479,-0.00572049,5.962932456
0.259907058,0.041497323,0.053986849,0.391161768,0.082373204,6.27583728
-0.50266771,0.066998133,0.096449726,0.003834953,0.075081109,0.795317534
0.139323555,-0.049274645,0.122266219,0.020799975,-0.032887124,5.804164777
-0.077977341,0.015085454,0.111820094,0.005132052,0.168572836,-3.619519458
0.375533696,-0.168741545,0.12014108,59.66573294,0.193148816,1.919749618
0.262834275,-0.133142311,-0.106559254,0.012249853,-0.071348655,0.085567821
-0.038654972,0.111229919,0.057502073,0.01439714,0.130563942,-1.243488432
0.064815459,-0.109010011,-0.043315156,0.14104684,-0.066384064,9.059988021
-0.071498148,0.043732964,-0.02311742,0.23813422,0.036053953,11.35035113
-0.131980052,0.122211744,0.034772117,0.237705082,0.288193833,-6.941337873
-0.068987952,-0.079392139,0.070502954,0.046932546,0.076596789,-11.7450625
-0.087583102,-0.103043168,-0.051325397,0.046629103,-0.020430658,-5.16277695
0.074435775,0.027805363,0.021508453,0.040148786,0.045302369,-9.620711205
-0.07914262,0.039047952,0.093658369,0.02388838,-0.075868806,4.811491267
-0.05753913,-0.000627043,0.054684001,0.047898144,-0.0149239,-19.17952182
0.024311549,0.057633043,-0.033241723,0.098971819,0.084742402,4.182720576
0.092128099,-0.001075078,0.053670762,0.026100795,0.14967042,-6.617625427
0.092992676,0.056452847,0.102751938,0.01138416,-0.0473298,-3.730784707
-0.003730303,-0.06483649,-0.115844155,-0.042252476,0.18763319,-8.069195872
-0.055222135,-0.050159009,-0.104666492,-0.035011252,0.11846107,-9.11215284
0.080632368,0.123828653,0.011679975,-0.007451138,0.065219519,2.202426797
-0.043061736,-0.113003159,-0.005554794,0.043714887,0.089749558,0.81704867
-0.029854555,-0.016933323,-0.06493599,0.027877869,-0.043708307,0.448431824
-0.067504673,0.014390638,-0.074159107,0.003474541,0.035428925,5.270327635
0.120926754,2.267506836,-0.084125212,0.009133158,0.215978434,5.585492852
-0.144471166,11.5446969,0.488270796,-0.057421133,-0.150620833,0.722053283
-0.107581849,0.315022152,0.040955168,0.025750393,-0.302926832,5.22033899
-0.039616772,2.274301248,-0.141815673,0.037266022,0.242109449,-3.175363388
0.113506459,9.755129985,0.06411637,0.002444896,0.434393808,1.759470751
0.107715034,8.146872223,0.237937914,-0.069529235,0.037635824,0.047385957
-0.122763642,-2.798098643,0.082306559,-0.045425341,0.397146578,-1.069080028
-0.001320821,2.974285022,-0.200520621,0.0096483,-0.279632449,8.051031627
0.048827095,-11.44901851,-0.190412512,0.063825689,-0.034547676,3.598006757
-0.032555755,2.415131135,-0.225383778,-0.001326593,0.055120181,-1.01428248
-0.168931514,-2.854764454,-0.218498633,0.021191566,-0.001496657,-0.861991331
0.065301175,-4.043486067,0.28988018,0.096932959,0.257067918,1.943871489
0.135792314,2.271297723,0.067317426,-0.059040616,0.090369068,0.987157592
-0.144518701,11.55050071,0.007880451,-0.082733018,0.000921775,-3.894278004
0.031009465,0.321162963,0.141388974,0.089393754,0.172855348,-0.172365892
0.114366528,2.272876119,0.586320722,-0.032211577,0.012571145,-0.67687157
0.057373226,9.742280536,0.000605233,-0.13082644,-0.000329153,6.008283176
0.120953564,8.134180723,0.317384811,0.048349918,0.002430242,4.927921602
-0.054346836,-2.788971323,0.007586607,0.051881727,0.001237654,-7.204074982
0.021999546,2.967600774,0.002595751,5.530049999,0.000825641,11.96983101
0.037060854,-11.44494913,0.003594202,1.040864013,0.004509151,0.030689006
-0.088663375,2.413595677,0.011240778,1.377495801,0.037396016,0.047480256
-0.02578346,-2.850526286,0.003375672,0.312447801,0.008959031,0.011596431
0.050343138,-4.041314927,0.035102427,0.224503977,0.001909069,0.048592391
0.085514637,0.305860868,0.001851428,-4.032520464,0.000762212,-0.100991755
-0.100220147,0.298846249,0.001183266,-0.111999257,0.000333429,0.00019132
0.086968881,0.062307108,0.035879642,-0.887796434,0.598015198,0.052582384
0.089187172,-0.006141304,0.017625769,-2.989667794,0.000820515,-0.01241253
0.023524117,-0.248749379,-0.000254095,-0.624160666,-0.000398702,0.008636173
0.018767937,-0.113283503,0.00253353,-2.763838057,0.001025392,-0.067206504
-0.080075286,0.094856595,0.002269571,5.89950444,-7.24E-05,-0.008313764
-0.092914465,0.13332067,0.001469386,1.102441706,0.000493352,0.012177088
0.056114299,0.385157568,0.437306932,1.478044395,0.283631873,0.095983627
-0.058276615,0.153759295,0.10185644,0.343278204,0.051775497,0.013355767
0.127436565,0.244769526,0.167677903,0.226168976,0.04223872,-0.113089773
-0.031463947,0.90757498,0.005583457,-4.345922397,0.010732289,-0.007043705
0.040325723,1.86584655,0.017873416,-0.121522203,0.019552655,-0.185842742
-0.028170696,9.365853765,0.191039511,-0.947433886,-0.037845693,-0.001454604
-0.02326777,0.283572065,0.32812667,-3.195364103,0.12293761,-0.202764449
0.029606263,1.857314515,0.139289241,-0.679984037,0.048224685,0.075385269
0.012916906,7.760243509,1.353201813,-3.068034363,-0.010737571,-0.109306988
-0.003213802,6.505683452,0.000422666,0.102728756,0.00533667,0.033118549
-0.032470769,-2.212949836,0.001721721,0.018889258,0.121601328,0.001549345
0.020723019,2.409532036,0.056885378,0.002803327,0.072440593,-0.098523835
0.000378171,-9.267345207,0.734419955,0.055514808,-0.024773894,4.166669853
0.051387428,2.111721272,0.006712783,-0.086346417,0.063907527,-2.084224622
-0.05036946,-2.33943561,0.016993336,-0.000734578,0.063890883,-3.126938651
-0.020080942,-3.277429756,0.004051263,0.030464202,-0.023412342,-0.909309572
0.116853396,0.142113665,0.005751489,-0.069641057,-0.022808805,-2.277288604
-0.03134701,0.144884246,0.020963201,-0.094553353,0.037844828,-0.851077077
0.015549879,0.04756476,0.006332312,0.051219954,0.160616256,-5.152535118
0.01152161,-0.000218708,0.165118191,0.027863475,-0.033972061,1.044524925
0.042428641,0.025866515,0.010023218,7.919675154,-0.059882937,1.300829505
0.048333462,0.112848135,0.040160872,0.364387585,0.096801669,1.518336283
0.003088652,0.001386511,0.004000606,2.418611168,-0.053581991,-5.147603699
-0.090489992,0.023493999,0.014118531,2.993563247,-0.033526948,2.888648257
-0.033895409,-0.038157512,0.080493372,-0.616920283,0.121141035,2.414217744
-0.031205361,-0.01268003,0.003727799,-4.147376105,0.115553754,-1.877382515
-0.038735691,0.020493461,0.00394084,0.492166713,0.152535723,-2.692648854
-0.065752294,-0.000714403,0.00176795,0.755717114,-0.029130793,-1.984715268
19.07005967,0.047992652,0.002634261,0.064867799,-0.020362337,-3.060896734
0.106621481,0.071874204,2.583212793,0.811111895,-0.031524478,0.466184653
-0.145525121,-0.014266755,-0.172964851,-0.556506775,-0.085379329,-5.202512047
-1.583141256,0.005265593,0.03457536,0.078443901,0.044976674,2.023534852
6.625129529,-0.015305204,0.040684862,0.061830261,0.102996367,-2.111740837
-8.424678299,0.011383218,-0.000451345,-0.061683636,-0.036649007,-0.778793398
-6.213600989,0.046163421,-0.000361074,-0.005725209,0.136676281,-1.719562069
-10.34032389,0.126700311,0.00505629,-0.0641248,0.152980021,-3.079802125
-4.492863202,-0.02404266,0.005502071,-0.008614741,-0.033630071,0.277140255
11.40182444,-0.036022074,0.000795246,-0.022589605,1.358955723,-0.210402943
0.492148247,0.02379184,0.005401835,-0.03873965,0.298078553,-0.583853293
5.695884989,0.008164393,0.002581149,-0.050458821,-0.255170554,-0.172013226
12.43169681,0.163927333,0.00324226,-0.037743917,-0.72897606,-0.67911961
0.092757944,0.015791515,0.037724163,-0.143675721,0.075233381,-0.060386256
-0.128806109,0.065095032,0.822816525,0.237779792,0.323052904,-1.035664006
-1.099788533,0.051178,0.000776252,0.065611097,0.030314506,0.286960294
4.293419416,0.02590996,0.001658512,0.106145415,-0.491190061,-0.268273615
-5.587434879,0.0262786,0.00218003,-0.070496337,-0.205335979,-0.060962851
-4.132321218,-0.227857696,0.040590045,0.125606962,0.156968746,-0.090282609
-6.798822407,-0.066962079,-0.000893247,0.158045303,-0.636925215,-0.35179545
-2.844879328,0.225384173,0.003946075,0.186243332,2.46844971,0.078378419
7.461252141,-0.149242155,0.004594631,-0.153033167,1.176415965,0.012020051
0.584235431,-0.221068551,0.001338808,-0.030976973,0.296353563,-0.154165012
3.62081378,0.105555773,0.001669346,-0.055201184,0.168521741,-0.08026842
8.6352248,0.049358215,0.004055101,0.047491278,0.220589281,-0.003588315
0.05049197,0.039662349,0.001602244,0.074638596,-1.020787472,0.088694817
-0.093426998,0.003236528,0.005472222,0.044051746,-1.304203224,-0.217172043
-0.726041441,-0.019969806,0.00239016,-0.077281357,0.213692305,0.138582633
3.017140672,0.024939577,0.002809659,0.015856055,0.90515813,-0.186503707
-3.839418747,0.041911371,0.01899012,0.061553891,-0.132475791,-0.052363178
-2.811969764,-0.044912618,0.124873886,0.040062575,2.852807918,0.000931966
-4.601671677,0.010365384,0.004438724,-0.029097525,1.628578911,-0.18339957
-1.919645771,-0.066362744,0.001504415,0.037908948,-0.757295428,0.152479062
5.107975576,-0.015908852,0.001436072,-0.072262867,0.670563881,0.016369431
0.291971195,-0.029464292,0.000602459,-0.052714262,0.114681878,-0.239818844
2.584189791,0.014446695,0.01866806,0.060275009,-0.12697981,-0.031474225
0.089982676,347.9635318,0.001373393,0.06142971,-0.451029713,-0.115241209
0.051199095,-461.2085133,0.002910539,-0.088401231,0.223238705,0.110703788
-0.019209677,-56.21409067,0.003849744,-0.008762923,0.130271372,-0.331223486
-0.056180733,39.45750848,0.071509475,-0.020990976,0.076798563,0.049474015
0.079678118,275.2757382,-0.001349235,-0.107620701,-0.664936445,-0.195124177
0.0544489,101.7755874,0.007058826,0.109081101,-0.059262431,-0.009104716
-0.01169912,-112.3096351,0.008081644,-0.050881363,-0.093450908,-0.201133621
0.014615527,84.09156111,0.002367156,-0.136371467,-0.460105285,-0.19577693
0.182043723,-14.76144636,0.002931939,-0.096420605,1.469170741,0.16852453
-0.222259847,-42.45964675,0.007149018,0.113448859,0.075075077,-0.13446031
0.121363501,115.1086869,0.002839743,-0.020817656,0.062348353,-0.222333184
-0.220609015,-2.919631884,0.009625682,0.072446308,-0.047981594,-0.015341421
10.59186261,0.091188583,0.00422039,0.015966088,-0.007567958,-0.075730199
0.075107897,-0.034850526,0.004956756,-0.021365066,-0.195144175,-0.044138664
-0.061429475,-0.027029527,0.033423551,-0.100014704,0.073084092,-0.17009196
-0.871845104,0.058547716,0.219524835,0.128740554,0.109168522,-0.059227879
3.515358036,-0.057372344,0.007806514,0.010580805,-0.045589928,-0.323485897
-4.472861149,0.120479886,0.002668162,-0.041748529,-0.097486022,0.095392461
-3.068701213,0.07014823,0.002570028,0.008090006,-0.000960921,0.016621851
-5.427549543,0.082187267,0.00105656,0.00456602,0.084149232,-0.32201299
-2.391084547,-0.09309672,0.032845807,0.05849867,0.132152968,0.053024728
5.534070267,0.102268517,0.001377427,0.043888144,0.03333898,0.053370995
0.097842486,0.055672078,0.002914506,7.826193923,0.090486236,0.069167452
2.979960741,-0.019280625,0.003855086,1.342374711,-0.017519786,0.001243859
3.74978541,0.115524199,0.071487103,-2.966022711,-0.091107919,0.000947475
0.462702421,0.005090722,-0.001238074,2.448583873,-0.036103468,0.00042545
-0.129605758,-0.089678741,0.007076527,4.115226337,-0.004416848,0.00079136
-0.404148006,0.022608439,0.008081473,4.100628999,0.050074135,0.014379912
0.692557922,-0.060194675,0.002369504,-0.963143175,0.026485556,0.107893915
-1.45468728,-0.095929069,0.002940908,-3.858985835,-0.08171539,0.011556733
-0.37415238,-0.151053001,0.007191676,-5.961959821,0.11400435,0.006581088
-1.680087811,-0.022464141,0.00285325,-4.230891032,-0.041201737,0.006728976
-0.243453343,-0.029039693,0.009626711,4.751933584,-0.039770015,0.037323881
1.933417077,0.068082354,0.004221196,7.835096182,0.135684052,0.005898431
-0.048288588,0.176509739,0.004956457,1.343028323,-0.050345156,0.04724301
0.828070817,0.126211241,0.033842144,-2.966434004,0.104160223,0.0023129
14.15232664,0.055036656,0.21955083,2.444410408,-0.048573667,0.000808243
-4.946728006,0.037953932,0.00780563,4.11510676,0.121658169,0.003316477
-8.939804121,-0.03604769,0.002670624,4.087771522,-0.041430009,0.258633368
2.464350569,-0.073864099,0.002580869,-0.961539603,-0.009075245,-0.001252464
-1.980229683,0.00517082,0.001062891,-3.855746135,-0.033400297,0.000626764
1.994254981,-0.001011539,0.032834934,-5.966602761,0.082642562,-0.000711821
4.12926436,0.10271218,0.084925673,-4.236393782,-0.195371953,0.000317004
-10.7605206,-0.006434602,0.001371778,4.750965832,-0.065223949,0.016652883
2.658468147,0.011067114,0.002945163,0.677720741,0.156639696,0.054882568
8.707359532,-0.017974667,0.002824551,-0.097263567,0.614044622,0.085735924
17.04764405,-0.013961834,0.185373648,0.25996534,-0.017590886,-0.011792168
-9.462216927,0.121354129,0.003846822,0.22492494,0.210804834,0.006136004
8.054182807,0.080770436,0.222224733,-0.313161337,0.295460781,0.080662215
-2.801263732,0.09772125,0.065140578,-0.24025167,0.239399255,-0.046058597
-4.948817763,0.016520748,-0.000555616,-0.023807256,0.246658702,0.030057886
1.455727918,0.072165925,-0.00136,-0.162253103,-0.13387291,0.05714939
-0.980178042,0.158840254,0.120039047,-0.26305015,0.003128442,0.1919208
1.134184186,0.025078474,0.003606893,-0.177127119,0.175225874,-0.17257782
2.235955414,0.106839055,0.002789119,-0.239335861,-0.057522595,0.055910068
-6.231648611,-0.054080923,0.008001113,6.39305215,-0.060228559,0.020597239
1.53765672,-0.054812876,0.000954682,1.016713446,0.75609167,0.01771911
4.950313374,0.01995257,0.002339028,-2.435478811,0.178575476,0.013763798
9.731959914,-0.017825715,0.001339629,1.984409771,0.12075413,0.064816033
-5.456802526,0.137149365,0.00288956,3.269207662,0.021636781,0.034518517
8.066449357,0.06792008,0.004663369,3.312401408,-0.018989867,0.061374849
-2.803449376,0.073870899,0.007003287,-0.782405568,0.058916613,-0.016456052
-4.942016265,0.09040567,0.001332852,-3.032703376,0.118089165,0.08520921
1.450653956,-0.05738752,0.002797788,-4.838221026,0.008047346,0.019336454
-0.980396114,0.067250687,0.01323249,-3.378550238,0.05540335,0.050863914
1.132062899,0.079340945,0.009245543,3.779288965,0.1047872,-0.006224445
2.239707138,0.030106812,0.000648993,0.124543015,-0.025021816,0.000551747
-6.220533011,-0.011386633,0.004201377,-0.011109796,0.178351915,0.041276917
1.539640971,0.041232626,0.000389336,-0.022738965,0.190250135,0.000660999
4.93842734,-0.015866841,0.004945306,0.021576478,0.148888016,0.064306811
9.72934621,0.069269933,0.023742819,-0.003537633,0.037893643,-0.075399598
-5.447558274,0.049698769,0.032659779,-0.001497319,-0.016009414,-0.018969054
17.43735442,0.060951808,0.003665242,0.076489718,0.062535852,-0.023686328
-1.214615499,-0.022844925,0.219409807,0.003073143,0.074879631,0.018874107
-2.51741125,-0.063835037,-0.000196167,0.008060645,-0.020101806,0.032890534
-0.347250379,0.000634785,0.007812114,-0.019508477,0.101425463,0.048160798
3.914746622,0.031888066,0.000918037,0.050646464,0.015019982,-0.018873727
-5.298778647,0.021176532,0.002640748,0.099420729,-0.091429088,-0.019549474
-3.145166588,0.052104423,0.000725753,-0.075563034,0.007635587,-0.052198114
-10.26164259,-0.048556472,0.002545826,0.025924393,0.095241588,2.453623893
-2.118844235,0.110773326,0.000512312,-0.021729596,0.235366254,0.724865856
10.28400936,-0.069616266,0.001040375,0.015610925,0.032433522,-0.833914698
5.006170844,0.019746282,0.302553492,-0.08637669,0.125163199,-1.947308137
1.059874459,-0.100306187,0.032848687,0.058737345,-0.000598643,0.513995171
7.189803003,0.063636683,0.001555249,-0.024454934,-0.041255601,0.135595082
-2.521323766,0.020168739,0.003285509,-0.111612059,-0.009117547,0.73603063
-4.403294563,-0.045780466,0.004336087,0.030667634,-0.023168418,-2.984583338
1.281274791,-0.001162555,0.080969888,0.026679961,-0.053162791,-1.164365234
-0.948160141,0.007958307,-0.001268152,0.301448666,0.029399699,-0.561033564
0.997140571,0.025726279,0.008356684,0.183555312,0.02231231,-2.421748815
1.951963294,0.000441763,0.009097252,0.146098087,0.035432714,6.581388542
-5.544960482,-0.046721266,0.002655152,0.068376038,0.066594318,1.583811185
1.313385773,-0.00333029,0.003305387,0.213714683,-0.02581119,0.456006798
4.432525926,0.027297564,0.00810899,0.049420464,0.035556816,-0.599714607
8.739120301,0.122213966,0.003210307,0.027404646,0.031323923,-1.223903955
-4.821700754,0.034552084,0.010868173,0.082591773,0.005721677,0.320811338
8.839042918,0.07857799,0.004730858,-0.253932208,-0.008137782,-0.015651595
2.644225517,-0.033224686,0.005568535,0.058305808,0.083721252,0.401248147
5.184458747,-0.011246362,0.037704483,0.022728017,-0.033534921,-1.978783032
-2.015701289,7.31E-05,0.246996319,0.100130523,0.113770911,-0.818872028
7.778155368,0.018202454,0.008786514,0.031566189,0.029227725,-0.341433727
4.024268689,-0.018224457,0.003025129,0.004179883,-0.121870872,-1.549775317
4.646021542,-0.00940756,0.00290515,-0.04905683,0.050084244,4.508780906
4.777476971,0.200901277,0.001207074,-0.026848307,-0.062292596,1.103570665
1.681247704,0.065359723,0.036875133,-0.025737978,0.030709265,0.361855265
1.065674643,0.074105691,0.132726323,0.008750158,6.705531772,-0.404020044
-6.282613264,0.075511073,0.002047492,-0.010124768,-1.096459854,-0.876910605
9.585677985,0.04380525,0.241304359,-0.088130791,2.778057376,0.262921312
0.0718473,8.618150335,0.02210914,0.009709498,1.851972505,0.085475058
0.025519303,0.041732537,-0.001602597,-0.010079813,0.747855606,0.218119769
-0.059099867,-0.094775236,0.087194575,329.5188291,5.308317869,-1.387192389
-0.024427366,-0.728473476,0.002317706,59.68281401,-0.045050625,-0.582934212
-0.036439537,3.012456749,0.00220877,86.1592695,-1.325116818,-0.237405492
-0.084601982,-3.849455249,0.002469306,19.17559711,2.158627651,-1.114658812
0.006726425,-2.791750894,0.011731961,9.862100629,-3.725133346,3.043611974
0.043058618,-4.60763612,0.003447918,-245.5771798,-3.320381813,0.058832886
0.028085098,-1.924501461,0.003368688,-9.44241101,8.767763911,0.07725394
-0.02556559,5.092738347,0.001300504,-54.92502514,1.408681861,-0.016701958
0.039151783,0.287111064,0.000959671,-171.9916039,-0.12245254,-0.084407572
-0.149476249,2.569684125,0.072769103,-30.35348155,0.106087121,-0.00666906
0.141707383,9.204721841,0.010322715,-162.8072018,-0.668960628,-0.075927794
0.051211378,0.060508715,0.000104927,0.138578184,0.244402433,-0.163298928
-0.065072326,-0.106172889,0.001703386,-0.102080017,0.563727579,0.018075833
0.081019542,-0.829170868,0.003561986,-0.074274581,0.061533549,-0.157663564
0.124055089,3.194427883,0.000903439,0.060459263,0.111892434,-0.146578297
-0.085347415,-4.121961514,0.08601828,-0.027077497,-0.103637228,-0.076537399
-0.040225644,-2.998071025,0.096667829,-0.049773074,0.888873437,0.053057847
-0.068812363,-4.907025677,-0.070365509,0.077557513,0.902473997,1.753312718
0.137140416,-2.062327082,0.01423106,-0.062628856,2.06087943,0.392692607
0.038174956,5.452923178,-0.111213079,-0.058288682,0.041009986,-0.473375595
0.175359352,0.221137802,0.018840449,-0.025552527,0.032794574,-1.018266608
-0.01675669,2.787747076,-0.068958476,-0.093659909,0.03529907,0.142363939
7.240150491,0.106005446,0.286118462,0.202921228,0.012479989,0.242219572
1.24118435,-0.048864094,0.04016293,-0.039262871,0.116808143,0.083169769
2.716243838,0.024305294,-0.042585188,0.089454611,-0.08600673,-1.530928207
-1.172265446,-0.009775514,-0.119784589,0.107092155,-0.00167833,-0.525561222
4.957613662,0.054689843,0.110088419,-0.122133635,-0.166964322,-0.400422302
0.661590102,-0.026744432,0.016319983,-0.123069139,0.077853441,-1.347059179
1.257664086,0.012378239,-0.037547826,-0.14315714,-0.029808469,3.065530871
0.735767843,0.045472676,-0.083252816,0.112974731,-0.078050798,1.61887779
0.171475523,-0.029825285,0.082414042,-0.254132705,0.227287958,-0.098023624
2.146699071,-0.081135619,-0.207906943,-0.17882258,0.056790871,0.339898824
-3.282944675,0.028701582,0.286689113,0.102823762,-0.001677804,-0.022370252
5.849599308,0.128662055,0.282227128,0.020062465,-0.07011592,0.314583251
6.263929342,12.08221694,-0.025081961,0.014245512,0.056120022,1.007574307
1.116635473,4.138710132,0.006504155,-0.026652659,-0.076409181,-0.051132405
-0.601265145,-2.193070682,0.152151736,-0.002789057,-0.058087585,-0.623957583
-0.623707174,-1.514647275,-0.006140137,-0.106639655,0.133185569,0.303755849
0.692665394,-1.650961353,0.112022398,-0.079734058,0.117795737,-0.798647235
-2.169516678,-2.845773946,-0.00069533,0.006746469,-0.006854038,-0.925633409
-0.486674786,2.113360678,-0.037357725,-0.090018794,0.043620658,2.270657217
-3.156340345,-5.885977423,-0.13075329,-0.004945205,-0.058649566,4.897587949
-0.076291675,2.497000982,0.161163467,0.089225163,0.093548398,-0.032981484
3.784328227,7.939226145,-0.015685257,0.0484207,0.105454417,-0.968757461
0.157910848,0.349584259,0.294128073,0.054258456,0.137912988,-0.967446981
1.149230933,0.786467429,-0.314033124,0.048646555,0.044557966,-1.563390883
0.347973693,0.082824513,3.493932713,-0.115524233,-0.020745057,-0.797373837
0.182931391,-0.027095602,-1.199639567,0.112130046,0.013809928,-3.022115521
-0.091326067,-0.056835301,0.417297555,0.067018182,-0.078733551,2.110689528
0.02577967,-0.008334172,-0.933532209,-0.007556516,-0.002737574,-0.623053024
0.346630204,0.026970115,2.169943157,-0.002828609,0.068116948,8.384175546
-0.328606154,0.044722591,-3.69748293,-0.063483523,-0.055809413,3.962945205
-0.228690694,0.016565131,2.119412531,0.023791575,0.227821286,-2.353148545
-0.149264407,-0.061899654,1.994997668,-0.140973315,-0.035105609,2.789569534
0.052081023,0.10667663,0.914286705,0.194499895,-0.129455528,0.068889418
-0.082465414,0.079993484,1.365786774,0.078290668,0.078102486,-0.468482106
-0.08208683,-0.183249389,0.08340663,0.040961038,-0.010739336,-0.580236855
0.022157824,0.046467163,0.132126715,-0.014662274,-0.063914515,-0.914487066
0.115019512,0.287673079,0.295144072,-0.134594128,-0.085227603,-0.525375092
-0.111403898,0.015096535,-0.433442928,-0.018272518,0.032168928,-1.681301425
-0.03847374,-0.218261343,0.303710095,-0.007598755,-0.068253779,1.28304351
0.050279244,0.085432379,0.731293658,0.025078687,0.124752889,-0.364875129
0.106076691,0.044737604,0.286972924,-0.043092752,-0.053991722,4.854931785
0.038393613,-0.127725859,-0.57000385,0.129921476,0.07531694,2.142584402
-0.079113912,-0.037196129,-0.424142049,0.002847199,0.163786715,-1.336083586
-0.194407817,-0.320691722,0.047278559,-0.095173291,0.163645712,2.800910398
0.141105451,0.179443023,1.945129615,0.038314924,-0.020735765,0.069306616
-0.031729543,-0.076328619,-0.563343842,0.000555999,0.177916742,-0.47218063
-0.02660476,0.347940588,-0.060049226,0.001391397,-0.030438879,-0.58634091
0.139560263,-0.062329077,-0.829993805,0.868628008,0.104238634,-0.914787462
0.199802433,0.078656974,1.502345664,0.928847888,0.048499863,-0.518010312
-0.107267122,-0.029032718,-2.701001192,0.002867438,-0.239789759,-1.69091501
0.085630128,0.020936954,1.251327884,0.056562597,-0.080182951,1.281154389
0.006055515,0.039623299,1.197420162,0.000949753,-0.007276783,-0.367260189
0.215353346,0.075163014,0.582656999,0.019488236,0.133952461,4.862833932
-0.00449017,0.029368465,1.270668707,0.001094259,0.009586153,2.139170198
-0.114267244,0.102175672,0.120282618,0.001027372,0.266617568,-1.349828558
-0.052210284,-0.076834361,-0.156238505,0.002200956,0.086589433,3.421200899
0.123206443,0.032728329,0.042545083,0.036298437,-0.216675656,0.483661958
-0.061459557,-0.013556253,-0.287647925,0.036429966,0.018756758,-0.714775731
-0.212110441,0.020724296,0.181831509,0.027697301,-0.044176229,-1.614846549
-0.038554381,0.05775135,0.017743154,0.030979405,-0.051937087,-0.137797701
0.247360353,0.085102425,0.034150989,0.116644548,0.008381848,0.159291466
0.012473179,-0.103582624,0.105007362,0.003598088,0.011061217,-0.345093289
0.020698189,0.06541841,0.27034834,0.018508265,0.005299146,-1.453570309
-0.023638543,0.103074711,-0.133075747,0.004710164,-0.035758801,-0.762442609
0.083597685,-0.112045206,0.060008203,51.91692538,-0.074594603,1.683427927
-0.069927075,-0.048794346,-0.06807508,0.010878383,0.051324011,-0.891748735
-0.03180392,-0.014016703,0.084682258,0.012820648,0.051431963,4.418967237
-0.135129763,-0.132087642,-0.031134308,0.038039681,-0.060383093,2.500597257
0.093159974,-0.089083631,-0.084260876,0.07978089,-0.005702815,0.020750852
0.064449179,-0.025676397,-0.248552364,0.053375368,0.037082316,-0.471999216
0.070133051,0.081823259,-0.109669344,0.081511419,0.006620111,-0.451045994
0.185514806,0.089883835,0.037434316,0.062151975,0.00860922,-0.828794312
0.063759795,0.057451639,0.138802524,0.005506978,-0.017947679,-0.467035861
0.158791167,-0.072338354,0.007378178,0.000701699,0.038622337,-1.460722305
0.081542279,0.059178995,0.231107421,0.002826637,-0.096916355,1.142989792
0.001372802,-0.037602573,0.049623855,0.003055103,-0.039019477,-0.300188666
0.023044711,0.081806811,-0.130318398,0.120967914,0.119917692,4.355069963
-0.063210464,-0.065144434,0.069156404,2.013412849,0.087403535,1.888096813
-0.068580675,0.062937151,-0.106894466,0.128234745,-0.057818453,-1.163087911
-0.23056144,-0.190924906,0.008953502,2.15308991,0.048332059,3.099703386
0.038003769,0.122083567,-0.049371025,0.001396402,-0.035073181,0.061519525
-0.104419592,-0.035796964,0.025180721,0.006741958,2.13472295,-0.183623733
0.051598088,0.123296853,0.080002009,4.318709948,4.724831578,-1.112795794
0.096281619,0.138284591,0.232403127,-0.297223339,0.324603453,1.454220983
-0.01913361,8.059233389,1.234500976,0.008535574,-0.141498452,2.291692863
0.038364226,-2.805872524,0.314187404,0.001352665,0.093939362,-0.206562026
0.082305713,-4.941556044,-0.024385149,0.004757933,-0.543138031,-0.664135471
-0.036663922,1.451956848,0.147950604,0.044738288,0.162701478,-0.067155687
-0.089292515,-0.978469869,-0.876832286,0.00751271,-0.386403078,-0.625315675
-0.050274384,1.133385316,1.376009231,0.00189243,-0.036929969,-2.018957092
0.027829378,2.234751592,-0.869648773,0.024442318,0.01644966,3.447713352
-0.023272403,-6.231003598,1.589917761,3.68E-05,0.064721646,0.043197913
0.081911788,1.538778278,0.806914056,0.000915714,0.036080588,-0.018924153
0.181158617,4.93496232,0.487293026,0.005119625,0.132389394,-0.03053377
0.034138815,9.734642097,0.328704805,0.040261881,0.067805589,-0.046976113
0.028845282,-5.453628609,0.122529301,0.070042839,-0.120531237,0.029076593
-0.03119556,8.067431278,0.088097476,0.041644539,-0.138209842,0.046668626
-0.008070258,-2.800302212,-0.062813788,0.070216422,1.063119076,-0.140870292
0.110642823,-4.942278948,-0.251525776,0.012409017,2.609929663,0.049258929
-0.03276559,1.44782406,0.181200397,0.06364061,-0.566977606,0.049116494
0.01965002,-0.974191301,0.108154738,0.046215607,-0.124631189,-0.008493095
0.005247481,1.130043781,0.397243286,0.059104614,0.015614499,0.051794822
2.536107405,2.239334225,0.502707103,0.110787593,0.009469601,0.115858965
10.93869194,-6.231073238,0.003473505,0.280117229,0.086084298,0.027380379
-17.64755248,1.543915824,0.29866955,0.002846239,-0.137006831,0.104218994
13.20665306,4.953619186,-0.052783064,0.008137475,0.075689537,-0.019152378
-15.27292707,9.73885316,-0.029094562,0.005933792,0.033315639,0.019419167
-6.737777291,-5.440686254,-0.139364591,0.042616247,0.010024179,-0.064178005
20.74323528,0.353496558,-0.021879552,0.002497638,0.054798987,-0.088416913
18.52472782,0.096577271,-0.21261515,0.010747225,0.044133936,-0.096496828
-18.43848219,-0.070133628,0.177730249,11.82532967,0.077833017,-0.016582075
1.759587393,0.01212009,0.113862591,119.9013741,0.066355038,-0.049398227
1.653816885,-0.2532506,0.050829202,0.008080435,-0.109282934,-0.016658117
7.134299808,-0.078537952,-0.164443325,0.024563176,0.024085353,-0.025240786
-11.54153333,-0.186881491,0.04361706,0.005887855,0.011970377,0.141994727
8.572156986,-0.136167009,0.072587902,0.029351249,-0.012756362,1.740324969
-9.995665425,-0.217003476,0.047940908,0.021529264,0.080057827,0.203200733
-4.430756484,0.254240751,-0.006622341,0.125218713,-0.039484651,-0.247647432
13.49788001,0.024240342,-0.034757427,0.029788492,-0.079177094,-0.979600557
12.24010249,0.133222251,-0.16269793,0.154222919,-0.007381565,0.667461672
-12.0590162,6.590295853,-0.003920256,0.067542074,-0.015337926,1.071301536
1.04871142,-2.247585546,0.074656707,0.112026712,0.048211093,0.103997792
1.146141203,-3.974990094,0.216240523,0.00090152,0.011362825,-0.81986111
4.957126964,1.143081363,-0.099126434,0.001222137,-0.107627402,-0.081820442
-8.01394624,-0.924379152,0.045748389,0.001147669,-0.080829482,-0.246363417
5.99823925,0.955960475,-0.035087614,0.00557206,-0.025166307,-1.191769797
-6.904361248,1.794064628,0.013462957,0.005346954,0.006063493,2.64973929
-3.021218908,-5.014417688,-0.068832205,0.002018774,0.082361569,3.21546117
9.371695495,1.191904243,-0.168574698,0.01809025,0.075564976,-0.365934998
8.396916045,4.048152636,-0.074914654,0.00114889,0.113958347,1.087122178
-8.314489074,7.892366253,-0.077013048,0.007258453,0.063790268,0.449714913
0.693767873,-4.431664198,-0.109086553,0.00145013,-0.249232919,0.600066615
0.027475433,0.147328534,-0.117400601,0.000365797,0.052903261,2.323848534
0.07091933,0.041289951,-0.103953815,0.001081089,0.070798062,-0.095594719
-0.052965132,0.030308379,15.66505392,0.568923403,0.049202344,-1.063731644
0.011145988,0.017741792,3.192234332,0.568944346,0.093132214,0.764995005
-0.051285703,-0.018107424,0.524959789,0.002927702,0.029543789,-1.837692055
0.120448483,-0.085100441,-0.065455615,0.460589415,0.045251508,-1.820302753
0.080276801,0.112338332,-16.34091431,0.003490091,0.012552956,4.81761676
0.103951125,0.00099602,25.76349808,0.00300118,-0.112211709,-0.032932385
0.158799483,0.070191601,-22.52030156,0.001932606,0.099395192,0.283384945
-0.177507385,0.01241706,26.65720399,0.003105555,0.078492693,-0.078784521
1.539102907,0.155186001,17.59459765,0.021895907,0.012793184,-0.017141426
6.371492647,0.034865351,17.03633667,0.002595581,-0.036230045,0.095704434
-9.311674837,0.11153045,2.588017634,0.001836312,-0.141304814,-0.100081411
6.764182994,-0.02988633,-1.294804972,0.000305057,0.168531919,-0.145190834
-7.944830026,-0.020467361,-0.95665315,0.002831765,0.257538828,-0.108094015
-3.719770482,-0.032551792,0.41512423,0.00140231,-0.020651461,-0.03857596
10.80057436,-0.093591075,2.287370515,0.001582356,0.003959675,-0.148092395
9.559582552,-0.120855125,-4.263871372,0.002158305,-0.00010895,0.011170648
-9.576345016,-0.046770203,6.728240038,0.002014769,0.000674295,0.042052796
0.932906962,-0.000891096,-2.248682759,0.009974713,0.055800132,0.023551267
1.189554811,0.027537129,-0.229818834,0.009584973,-0.090274331,0.072858305
4.26719317,0.15147387,-3.543545151,0.003558327,0.031610965,0.131228677
-0.932649768,0.17050946,0.088238718,0.031831651,0.000148878,0.040508314
0.640717365,0.098631225,0.06388452,0.002034689,0.007589895,-0.020680058
-2.537245387,0.257966356,-0.246956531,0.012757266,0.119675315,0.027331494
-1.06574279,-0.110518095,0.043651684,0.002563523,0.003278656,-0.0123188
0.457804423,-0.063871635,0.097668212,0.000653646,-0.014874633,-0.111787735
1.573947659,-0.049738252,-0.204699417,0.001923723,-0.056297282,0.013826041
-1.550669132,0.263717922,0.288208215,1.000096676,-0.013855799,-0.06986978
1.991056729,-0.105220452,-0.024645007,1.000134056,0.034384668,-0.143694745
1.944349631,-0.04551638,-0.068457132,0.005165178,-0.00918597,0.12832614
10.30853483,-0.208587875,-0.245426997,0.809654048,0.006954864,0.031638544
-7.44204728,0.127273829,0.068195834,0.006138437,0.008485999,0.103745881
3.29977359,-0.221516683,-0.126559057,0.005272103,-0.038317752,0.136031948
3.169222848,0.130386262,0.037101983,0.003436367,-0.058640027,-0.217127524
-15.44118842,-0.172871026,-0.004155619,0.005469277,-0.037121749,0.112004615
6.865286984,0.109010902,0.019090403,0.048606604,-0.034923919,0.135471077
0.461004718,-0.057832827,0.072450689,0.004534259,0.201066961,-0.123333743
-2.058626971,-0.036747487,-0.108084888,0.003213804,0.457104822,-0.008226011
-10.92756934,-0.038398491,0.087195137,0.000563364,0.387131003,0.029415447
1.11087407,0.053619299,0.027347723,0.004991053,0.550335091,-0.014412567
5.869333689,-0.099103033,-0.129935922,0.002482857,0.03694287,-0.214107183
-4.155564041,0.042182972,0.093540871,0.001582989,0.138712633,0.0788117
1.860828913,-0.070878729,-0.043553081,0.002161264,0.349046633,0.087751475
1.677932899,0.004764862,0.052656964,0.00201925,-1.238063612,0.062767325
-8.770703045,0.046706219,0.052155499,0.009916265,1.735615105,0.028888077
3.786071637,0.038872144,-0.03676723,0.00952205,-0.823732865,0.058221167
0.204593637,-0.00086684,-0.343874837,0.003564382,-1.510406086,-0.080765472
-1.14474516,521.0452664,0.093219921,0.03252009,0.057602434,0.04523615
-6.279473807,5.487659323,-0.123373634,0.002039939,-0.831664462,-0.107118775
1.115303288,-3.171417466,-0.023907389,0.012749177,0.630207128,-0.046298677
5.878169873,-43.51269215,-0.284199527,0.002569467,2.123473219,-0.198454192
-4.158972108,176.2615429,0.031588085,0.000656752,-1.170984731,0.142248256
1.855407576,-237.5404439,0.01357959,0.001928934,0.062756014,0.017864419
1.682740375,-168.8905199,0.057208065,0.999683659,-0.038185969,-0.08274601
-8.773456257,-279.8499201,-0.129976261,0.999721669,-0.066448325,0.028775962
3.791339529,-116.1474277,-0.143701582,0.005185448,0.017025882,-0.066931456
0.196976062,311.6664271,0.01928829,0.809322736,0.000289951,-0.016742333
-1.134893135,7.435689053,0.113138872,0.00613952,0.077770191,0.043943716
-6.282674423,156.9925843,0.087150256,0.005274736,0.157879804,-0.052848029
2.50166442,0.17549484,0.018428618,0.0034477,0.012899589,-0.052476344
11.37236681,-0.038633881,0.270907739,0.005470833,0.028017897,-0.011804388
-13.73142947,-0.062729827,-0.00038745,0.045880754,0.009582023,0.031822734
9.517569863,0.012317801,-0.137484437,0.004534585,-0.030924034,0.015384413
-9.862093105,-0.155838763,-0.088077201,0.003220493,0.045994187,-0.039182216
-9.027179147,0.025964697,-0.098008906,0.000565561,-0.043145406,-0.046308743
15.50528669,0.008993977,0.063451559,0.004990605,-0.008374013,0.016321588
12.48326465,0.064630921,0.268992982,0.002482156,0.090289534,-0.021235478
-12.97517911,0.019508147,-0.250503353,0.053729116,-0.11602042,-0.030509122
-1.403589441,0.088226995,-0.035514266,0.001581536,0.03740321,-0.017817146
0.995740161,-0.019210415,-0.126629458,0.000188621,0.001463668,-0.001427841
5.234142726,0.195394364,0.157600949,0.002152153,-0.100549827,0.033076196
-3.739814057,0.213632175,0.073958253,0.000483129,0.10725846,-0.096016521
1.61324733,-0.096786618,-0.127685761,0.001999188,-0.031208212,0.05391407
1.572289103,-0.005462162,-0.037296871,0.33044084,-0.083056341,-0.016217898
-7.867444763,-0.10997544,-0.04742521,0.000519674,-0.038700701,-0.040796573
3.365463983,0.029609423,-0.064970536,0.353362591,0.048247893,-0.033018393
0.192530755,0.060620599,0.052566335,-0.000525719,0.011342228,0.019648094
-1.054679092,0.180824884,0.006994057,0.000987718,0.006525365,-0.002543415
-5.551559633,0.030122223,-0.137512127,0.003527946,-0.010999162,5.556819787
1.694670155,-0.186220049,0.105743272,0.038890144,-0.054409354,16.28838681
7.260859782,0.32134732,0.040239667,0.030582989,0.06208189,1.478339357
-3.361716659,0.046465836,0.033690107,0.00033001,-0.025339709,-0.632815462
3.343272356,-0.045188042,-0.089807575,0.002023142,0.003641453,0.262750289
-1.846643843,0.048126218,0.005285632,0.007292102,-0.126264698,-1.243553643
-3.617101068,0.009662135,-0.093747634,0.01255008,0.203967773,0.00885664
-0.977402314,0.084300112,0.171307613,0.000363354,-0.626463489,-1.171791835
1.253536201,0.063263764,-0.022428673,0.002551087,0.472939309,3.617955701
-1.6698693,0.037034409,0.181822663,0.000486144,-0.003997995,10.6492353
2.758309523,-0.074648742,-0.28235959,0.000639294,-0.1714318,0.977318981
0.030812149,-0.071621897,0.05572442,0.000761258,-0.008626674,-0.384361904
0.082600724,0.034941195,0.082866771,0.001900277,-0.07001421,0.244048867
-0.03119902,0.006520457,0.018020767,0.003392727,-0.022019,-0.707506243
0.00824463,0.103683952,0.232631865,1.000115368,0.079102266,0.031120962
-0.00462243,0.034513952,0.043790033,0.003442326,0.005143315,-0.740622805
-0.030726582,0.066016466,-0.244834591,1.000151059,-0.044697586,2.514352871
0.023758466,0.123758337,5.8861991,0.010193167,0.017093516,7.383495888
0.000363223,0.094808618,7.087958589,0.004854915,0.109453076,0.636498325
0.064496205,-0.014040176,0.171297761,0.00339073,0.07150729,-0.257334731
-0.035122459,0.17160536,-1.407302756,0.809649995,0.099022278,0.152969282
0.025947234,0.025172672,-1.139646288,0.116796718,-0.050616734,-0.534766356
0.123286634,0.137942421,0.237892041,0.006137826,0.169196772,-0.032844728
-0.126341539,-0.080607459,0.924644393,0.001282716,-0.053534561,-0.459810085
0.093477702,-0.013891368,2.114426965,0.005234316,0.024403106,0.036437019
-0.104645634,0.007933841,0.399759511,0.006861454,0.099383919,0.00408403
0.041988003,0.131520563,-0.821159273,0.003233038,0.077129922,-0.024142708
0.059091496,0.014140451,-0.517944622,0.001706277,-0.077586486,0.068035952
0.143378731,0.028180935,-0.437872024,0.005419838,-0.034673556,0.053805496
-0.12595193,0.025739823,-0.486160069,19.77857739,0.017847185,0.031178678
-0.183583985,0.084487615,2.785119503,-0.517390578,0.065030184,0.004865626
1.09175217,-0.015444044,-2.753991366,0.004108766,0.056377375,0.128942309
4.925902831,-0.050048609,-4.073755849,0.004416311,0.038552055,3.120647542
-4.637739385,0.033665818,3.109027673,0.004780328,-0.101584015,8.354843398
3.777491325,-0.041490636,3.961865883,0.0030733,0.097293247,0.606797931
-3.047921508,-0.000621853,0.087273075,0.062829613,0.094081457,-0.275995434
-2.72689519,-0.176556039,-1.695334091,0.000562283,0.185695359,0.115918638
3.217568821,0.105072758,-0.030900667,0.07046558,0.044719386,-0.616005212
3.505281863,0.011908589,0.765503328,0.004990636,0.151061081,-0.021507997
-3.962809599,0.088489527,0.242794093,0.064332899,-0.054737389,-0.573465121
1.315049865,0.141629288,1.307182973,0.002482461,0.042180162,0.768257004
2.355673571,0.052344668,0.126334619,0.001772098,0.220891015,1.989012958
8.703261548,0.171687443,0.00703474,0.002437254,0.24601202,-0.032111783
-0.038264092,0.030055884,-0.101829755,0.002275161,0.00426051,0.039192789
0.293514174,0.056241218,0.239410929,0.012102694,-0.070931689,-0.000789711
-4.85642827,0.054535083,-0.040291322,0.011726028,-0.046986102,-0.115534199
-2.156531771,0.057771455,0.162497575,0.004023014,0.066081582,0.10041936
-1.630992812,0.066516395,0.063140569,0.035964306,-0.192089938,-0.389416137
1.648561826,-0.008637502,-0.049561661,0.002298319,-0.014755126,9.644000435
-1.779595229,0.066773648,0.047658841,0.014344273,0.302879354,-5.351846258
4.63269776,-0.104846798,-0.010089749,0.002884852,2.058680157,13.06163087
0.012204679,0.019678434,0.014294874,0.000760338,-0.417860444,0.377953492
0.216715473,0.072911251,0.008837776,0.002175015,-1.164126154,-1.037873829
-0.477065857,-0.032499163,-0.003597501,1.122857004,0.704525604,-2.430674292
0.362036787,0.032323098,0.1193815,1.12290064,-0.744657778,-0.177934545
-0.590885505,0.006389568,0.073780673,0.005907535,0.844293721,-1.189975346
0.103497951,-0.046852235,0.114729861,0.909060493,0.201798593,5.486398886
0.266343053,-0.027709268,0.132536764,0.006900847,0.211794492,-3.041520587
0.487914633,-0.023800205,-0.168985725,0.005953646,-0.330923808,7.433272739
-0.569774797,-0.025810234,0.091517625,0.00387364,0.387200184,0.319123425
-0.120240154,0.005731281,-0.153888147,0.006159532,0.080800007,-0.68164451
0.013187427,0.027252033,0.024195639,0.109381681,1.556983519,-1.414736629
0.109183857,0.047051606,-0.074409029,0.005119156,0.712659086,-0.141994902
0.002953523,-0.062457214,-0.101215658,0.003645163,-0.559618273,-0.699455864
0.126891195,0.005300372,0.09273861,0.000647485,-1.600782134,5.490391187
-0.020129839,0.056211109,0.515377493,0.005596783,1.116746461,-3.043791025
0.061335204,-0.046711461,-0.761347206,0.002800536,0.31728337,7.423660199
0.132801093,0.059980216,0.578176939,0.087713339,-0.484028723,0.317666924
0.039763464,-0.022252946,-0.956503434,0.000243257,-1.627857273,-0.684007718
-0.150912942,0.040228417,1.238589394,0.001697415,-0.011554137,-1.415609612
-0.093701964,-0.073745924,0.426708334,0.014858784,0.814135363,-0.147942944
0.037200227,1.140796665,-0.453809104,0.016180351,-1.711861745,-0.698287048
0.063973409,4.948709591,0.137254936,0.001720724,-0.258153032,6.509622224
-0.044740501,-7.994337674,0.147909069,0.112981217,5.330954227,9.608860817
0.229674434,5.984939877,-0.203027787,0.001161198,1.184073605,4.709357547
-0.212716494,-6.897120253,0.142115553,0.000484657,-0.327589564,-0.226815377
0.018857438,-3.021845682,-0.289444399,0.001402876,-0.340058129,-0.146227614
0.291391753,9.366198275,0.315907196,0.001382358,-0.101749797,-1.512734679
-0.022943624,8.398298212,0.205170186,0.001188766,-0.738251691,0.069481205
0.002490418,-8.327923227,0.019766585,0.007088017,0.485063271,-1.276447179
-0.142245743,0.694762467,-0.200201559,0.007500648,0.149484739,4.891367721
0.028191506,1.213304187,0.397250837,0.004742386,0.111013205,-2.704681811
0.183048484,5.27846298,0.353087868,0.008120278,-0.455393545,6.595622704
-0.225585907,-8.570760914,0.049334331,0.152108332,0.782051743,0.261344976
0.130105868,6.393922147,0.012713817,0.001632915,-0.752225123,-0.58605962
-0.162568996,-7.376147326,-0.021878568,0.002857398,0.74929011,-1.24600083
-0.127785945,-3.225156217,-0.009859559,0.000236564,0.107707895,-0.070200298
