distance1,distance2,distance3
0.2223626277024188,0.17418250452665923,0.13107264892879186
0.23574650728583366,0.2104428779251231,0.1686432861277137
0.210625360585587,0.1938235018946275,0.14341380016064617
0.22533987138981662,0.1930859035957372,0.1527817641886712
0.21759771666910607,0.2082069075951371,0.14615028333515612
0.23808128278885857,0.19685116339711964,0.1709950200114679
0.22755054733936111,0.18508818410092795,0.12933972869609753
0.22349510070352457,0.1770911708094363,0.13102878191011222
0.2195898879192571,0.15897867019229933,0.12667831053222534
0.237423852675817,0.18092587243601793,0.13447427684809035
0.22720214130163793,0.1807848148398788,0.12897425573667914
0.26657934098742075,0.18902419141280644,0.15101055449091647
0.21633084753674467,0.18238383310646722,0.11981412867003587
0.24110922183528186,0.20197665294370581,0.13339644951818302
0.2152692587929371,0.1731342715725165,0.13407456095810644
0.2299877920914488,0.19683632685381156,0.15359230879359423
0.22171895686428664,0.1877780848294176,0.14555979336405134
0.2076878728552656,0.20569426193131024,0.1600799618933434
0.23799491908486506,0.19504991303020663,0.14024665587471308
0.22008614883216512,0.17232219091050474,0.11363522583220304
0.21050611467137997,0.17895099318189092,0.13370989001307293
0.24154392512885287,0.1919736962523931,0.12862328924905286
0.22182972285233366,0.19432020819025075,0.13685399152078742
0.22434255593606167,0.1851737130392208,0.12313695553228174
0.24226395227731298,0.1793851839221742,0.16015068578971686
0.22459086227563002,0.18378687219210751,0.14067493714315413
0.2165665012217088,0.17726759086947966,0.13082188022739186
0.22970801508841202,0.20132984337684423,0.1415802142126279
0.23183427494518166,0.17983111739459123,0.14327513280686358
0.21593246475461383,0.2255786015030298,0.16162848644579816
0.23478317096631354,0.2117998824041383,0.15308632781539547
0.22289116211298846,0.19383374954305863,0.14141750208966072
0.22714578290566378,0.18861294776452744,0.17647065342696755
0.20377873650005934,0.17122536571327088,0.11251499746934422
0.2055279456504766,0.1932826788550515,0.14838508194712124
0.2173483698577697,0.16416689286458536,0.11901280550886606
0.20328398941748682,0.2108647911544739,0.15459402016425255
0.22314726048168473,0.18993567053395888,0.13363901978625672
0.22309250508759215,0.1873879257160245,0.13149507851406725
0.21890654018551892,0.188640592112761,0.14783093113505794
0.22710325177413906,0.19069275649441558,0.13419133672208233
0.2296095248479818,0.18511224983497032,0.14666622204757024
0.2177090812468383,0.17323311632411945,0.12109335674994003
0.2247112385792633,0.18426939067281545,0.133872811007881
0.22341280551078843,0.18174069696041414,0.12128811432807754
0.2161991772839676,0.19174292479042163,0.16236047104997114
0.22033628757011353,0.18275846137367965,0.12655946088407302
0.2295405536149206,0.18721353795947404,0.14229067309475288
0.21521442848891695,0.17814777038826288,0.1406197934865024
0.21683273584133253,0.17465262348255736,0.13209519212996837
0.23064786054854744,0.18104961281146703,0.14714937046482496
0.2258462901700287,0.18848252155033077,0.17177637328628967
0.2308277541297188,0.20395447236369943,0.14792886576431577
0.2263432517163363,0.19257159653553066,0.16294971898677602
0.23470777064116607,0.1869997866430674,0.14112969788593982
0.25083355897287124,0.17768788083169332,0.15236636621396585
0.24008839186040418,0.17558773461461907,0.1370057816062806
0.22570145577327738,0.1927086186254749,0.13817324952005214
0.2305408843834218,0.1799002796281811,0.14981579188084507
0.21806155103093872,0.2015464390400737,0.16715068855328025
0.22445298673097605,0.1971407517958576,0.13866880094381187
0.20968952062743548,0.19637373174703118,0.15254066192342947
0.20611696741428415,0.20550023213716176,0.13931629126931636
0.2104743072718661,0.19381220967464255,0.15578465892252913
0.21435224093658584,0.16896511412542967,0.11433252774054106
0.22279280817439434,0.20460012492354163,0.14704922318393698
0.22451664269243463,0.19047165350039466,0.13911150851597212
0.1995698007733751,0.21125217613078895,0.15715045711031608
0.24162085676802722,0.19094368064523304,0.14323024164927364
0.2206057585288812,0.18720097974548305,0.135270646253163
0.22836847901764318,0.18870239174246245,0.12016057281094156
0.22127537573324785,0.18715334685574783,0.13904681170343033
0.23146857269212015,0.19208630216829006,0.1380092564354107
0.2170966273849388,0.19918365223929022,0.15898973687978593
0.2316240870246868,0.1982562923939195,0.13226043546620503
0.22672945773028486,0.1881096688718461,0.12487952066519883
0.2527241993775964,0.1862495801683345,0.14389280252697986
0.21879157734988963,0.20071072817897276,0.15914713777110742
0.23080050128738977,0.19756134775626494,0.1440941493904097
0.2312544998495555,0.17708047953258332,0.1437673682834166
0.22152223863437717,0.18554718843979665,0.14238777635211416
0.2264697669370772,0.17982582661274896,0.14854510156137193
0.21778627075254545,0.18231614265639684,0.12473427727517776
0.20688612266312253,0.19086827596037834,0.14018911351497337
0.2151054324275498,0.1877729195863372,0.13422020626148823
0.20646154638092454,0.18522348168594513,0.14428168036113392
0.22644955497096808,0.18467154144016312,0.13474084184354304
0.24385851499544656,0.1819550828344608,0.14140672356957515
0.21797595105018952,0.18340768601527863,0.13873434258819659
0.22360450655836797,0.19519551228289914,0.14746201600565392
0.22497717026688913,0.18283921885060378,0.14073309721086705
0.23198172341297543,0.1688133724778194,0.1454216805727684
0.22640946712880625,0.19595740139613446,0.13709740916396532
0.22657471669492105,0.19866330842132693,0.15178391246095516
0.23412518374084287,0.18835600293915986,0.16151742726781992
0.2397304219598246,0.18803522598177064,0.12634153901558198
0.2045982811829117,0.1863276329693084,0.12955233880013536
0.21656460534821706,0.20477256737338986,0.13347311622727315
0.21730535476904694,0.19202672163270923,0.1395459494757371
0.2529203497046466,0.19186059056784932,0.17229953648267793
0.22261142460898606,0.18490897409208118,0.11718971895573076
0.23601079886023468,0.18601318647892712,0.12970190064232967
0.2269364740657717,0.18188626083506412,0.14352496268345022
0.22767479774646976,0.19009364609606066,0.15038386602016987
0.2221650414814641,0.18232176888055548,0.1424053984624729
0.21767021754178134,0.1787820488315168,0.13233048526893695
0.2501608686043969,0.19029636286801452,0.15101395115764052
0.2217137484764918,0.19984406678579467,0.14364136843685255
0.2232482413346691,0.19547213445689526,0.1570126328941829
0.23077944231841208,0.1824532182109906,0.13870673418093826
0.22536368065310527,0.18527715147173493,0.1559456780077149
0.2247550739051504,0.1735446867693772,0.14395440090798634
0.22654784402551723,0.18272804299596979,0.1262646446209578
0.21848045649687786,0.17346719468107608,0.13598736621877117
0.21176602363431388,0.1837566753478394,0.12475175371004306
0.22613153459775986,0.17653568394995423,0.11913256883796292
0.2351916932583548,0.17714008897304767,0.14959351140527682
0.23166776049118484,0.18834365561351088,0.15244087459652259
0.22592137600054465,0.1780511371358214,0.13641913004324996
0.23142484571958266,0.19539947406625796,0.14778740813296107
0.23813674102465507,0.18494133551907213,0.14321694863357504
0.20135381837702213,0.18297230489454952,0.14550909797189232
0.23426604697639586,0.19710453888398205,0.15178994041455798
0.21470679022276282,0.1991040063021626,0.14422506043305575
0.22470702971163917,0.19085118499155707,0.15470983311902645
0.25900203293404633,0.1790589323891111,0.18613654748955813
0.22333104855775737,0.2177816916062825,0.17018707854899096
0.23903386271684787,0.18056326931674582,0.13604148574992062
0.21790451211960993,0.18104382315763404,0.12473587675651236
0.21778491711957243,0.17844333005154353,0.13089525391444978
0.2495448593680747,0.20138353673232964,0.15318653510333016
0.2502329648401199,0.19297804090677687,0.1457871489508949
0.21070931763548525,0.20304559976457237,0.13575959099007145
0.22079638526305312,0.1782870410275056,0.1299545246977496
0.23628586844058208,0.1855912757318732,0.16478199346919636
0.2302744501233016,0.1818857447181594,0.1438036934207262
0.22044151867915554,0.17398904744483595,0.13319600789036734
0.22397961329593424,0.17753806261369323,0.12801914535405487
0.23843135251574477,0.17951107517552609,0.14359295517388654
0.2320036431060727,0.2052884230324834,0.1457290434163438
0.2358371327597087,0.19465811002098196,0.12511108554172345
0.22259821197455232,0.16563517845729953,0.12719166668001747
0.22361512294297464,0.18309281519677992,0.13094755652226198
0.23636509721398288,0.19729497564824672,0.151542318407576
0.22841117309091524,0.19791075075630726,0.15742467456397974
0.22118551123367286,0.1860284736606511,0.15218626848686453
0.22160689252710652,0.19521145871221884,0.1356821136314993
0.2296895006062486,0.19134106620332572,0.13254413251996836
0.23619645843122772,0.18495679852302627,0.138393487425997
0.22283530757780362,0.1829332380652902,0.13834049953242053
0.23847121827521678,0.17568278112842237,0.13756889321876467
0.21513685480534406,0.1758146673211759,0.11600373296278178
0.23550538654809947,0.1784268784158728,0.15387179683956026
0.22830216053633165,0.18498170208235387,0.1233531643692004
0.22836115791034964,0.19531678765234162,0.16224906622671567
0.2319771183817619,0.1985027886629886,0.17179166185446543
0.22075915011632463,0.19502896210785448,0.14480347886148284
0.21539262055291844,0.18157787710041542,0.14023142603263183
0.2425433616675876,0.19576274478838854,0.1518539014354095
0.20795294495623257,0.1872783345983786,0.1455307415692746
0.2271766165538188,0.19414001776235698,0.16700178497653587
0.22356630685845302,0.18709306893437322,0.14950025478203655
0.20481681844847532,0.18504652491797838,0.1265421306746616
0.23175573932752422,0.19183873828211265,0.12851012377446497
0.22291277502502885,0.19689396245270618,0.17115361825024952
0.24379750115130733,0.18736429132741256,0.14894473943201658
0.2350252990117613,0.18704281076402862,0.16245287617681514
0.21344389343604875,0.18545312361148314,0.13174823647744677
0.23288613144922019,0.20561118387921615,0.1483580381420591
0.23235615008793029,0.19692659892137668,0.1394719394153492
0.22650105585106106,0.20513830882635353,0.17829297820631948
0.24592168515636048,0.18955613048841327,0.15095041779889043
0.23843655463915436,0.16760311590877613,0.12515153382663471
0.2289753139590827,0.18585053037430505,0.1617465740229262
0.21925210005971987,0.18227572421171068,0.13049504828370823
0.23341544873015743,0.20107765543194178,0.1710867979109084
0.2019231805458182,0.18814252835776907,0.13644078427521725
0.22697468866325088,0.19195092992720733,0.16570363479618083
0.2256425868256909,0.19804535114444483,0.16968456665169013
0.22632942610355986,0.1910423757897746,0.1576779646208423
0.22203187530218724,0.1946091513934315,0.13901654890381202
0.2298956184749831,0.18669207242154817,0.13370823715668065
0.2393554140053167,0.20257454207978637,0.15671649325427514
0.2245838881700098,0.17987181174685984,0.15438989152864319
0.21932211734868243,0.17894538734846077,0.14456073430113972
0.2145890451834507,0.1938810854555381,0.1372057492653736
0.21801594471521504,0.17868238283287916,0.12509236280118666
0.2332619314577897,0.1916239381226385,0.16516159628366495
0.2448803238849042,0.18784921170968544,0.15772064728011417
0.21888886175464567,0.19542014855774542,0.15353930069672672
0.21697734104525807,0.1815725550061358,0.14572926759518193
0.22720382108253048,0.18942135878195082,0.12760561071897994
0.21933435427440529,0.17968114415550462,0.1373573490891522
0.21487933876455548,0.18036166355717,0.14979269013342097
0.2205401274614029,0.19212942675888653,0.1406504506803189
0.2222905602370607,0.18157551197465996,0.128695955646939
0.2295414794513472,0.19735624373699917,0.14771326028132986
0.22735863555834165,0.18509800810914487,0.14105754500953982
0.22158798007585143,0.19210425992839464,0.16785529394732004
0.2274116064094093,0.18717628241723203,0.15988917317265713
0.23818474718625826,0.19527802662746221,0.16525201065632353
0.22068266491103758,0.1895125598789646,0.14846824916827805
0.24112615663779252,0.199032163399654,0.14806290866614175
0.24603084762029545,0.18432312627813568,0.15278044479574626
0.22662771410756086,0.17479308538486985,0.14690868981694497
0.22061402314398043,0.1989473926132064,0.1515921511032931
0.22297384129126221,0.20730927761576062,0.13829944887550374
0.22323502104274892,0.19992776935085557,0.1437751602952061
0.22612735124817707,0.1867683623676687,0.13156678512229106
0.22958784006424487,0.17549127822387206,0.12298718604922688
0.23695903875640043,0.17278952673346548,0.13932681644039205
0.21702045056405758,0.1965681932847322,0.13770738498731105
0.20847066215562807,0.17806868895615977,0.13142482744922782
0.22055370560897272,0.19862847822491403,0.16982200938297223
0.2452714388502904,0.20394658814965047,0.1726019091218163
0.21602237770069585,0.18681831517005462,0.1303533502212856
0.222973787083475,0.1925042575897542,0.1584518620384977
0.224491505866681,0.19010366455627006,0.12899422000683544
0.23667333845913002,0.18038505878987382,0.1499667753381568
0.2418717490236506,0.18371671616152774,0.12674293859281777
0.21929414272409775,0.18800898553003165,0.13959146852533538
0.22945919171955453,0.19541550331046043,0.16416421804721643
0.22109540029041871,0.20261881282071617,0.16240558563682633
0.2395364184372192,0.19330956986040718,0.1618198863443747
0.20758005497638887,0.17187620969669032,0.13216099305116724
0.2295721060926907,0.17661515435815905,0.14446398983097325
0.24891308125524572,0.19895093311842638,0.15464875908897227
0.23306517247548583,0.19194907484514437,0.14030985050789133
0.22590116880505817,0.178779875169524,0.13366386518897366
0.24629956002592254,0.19850240656192203,0.13847987064440187
0.23024453232607092,0.19356469372020296,0.14518282754627856
0.24545822779928392,0.19268826202268244,0.16635947147153396
0.21623748575950066,0.18171753328276158,0.11743571116583004
0.22841855468032157,0.1857500528345721,0.15179489243736818
0.23675539536755236,0.18746106409302601,0.1276611757091048
0.2294528741618817,0.1881185582574944,0.15586753791284058
0.22434422832490625,0.19252396739174676,0.15341467717109541
0.23272129472979286,0.19378410716196828,0.15532361909053208
0.2479083413997253,0.18837298054298202,0.1499274107088407
0.2230143097342097,0.18313364283235262,0.14422252282939338
0.22938616554294175,0.18025349218307601,0.13138714350240502
0.2576513883405464,0.1852474069967806,0.15324392647561308
0.21201018892167348,0.17642831485851673,0.13526670902791943
0.24077160531854844,0.20573086326502893,0.14894813901174572
0.22046704490022012,0.1921662957470377,0.12989338600053552
0.23497734029213563,0.18769340320360683,0.18348590090091768
0.23144776725365973,0.19325177162959142,0.147877079381001
0.22716588554468628,0.20581335524283845,0.15461191069595867
0.2113868812558508,0.17720799336925647,0.13288329723418085
0.23656109966769634,0.19104664298890373,0.1144933363370382
0.24089359153881282,0.1788955174916965,0.14882286791154456
0.23413392018672452,0.18297725922040656,0.13310000118794793
0.21612272414490702,0.184872980677795,0.14718018434656807
0.24772229976387505,0.18029952942819671,0.15636432129873667
0.2224005855838463,0.20473684560843655,0.14886751605210968
0.2335680195641119,0.19934629767167342,0.12483742483172769
0.23011264888876465,0.19542930549676757,0.15107459546122676
0.21080737899425186,0.18275646140401108,0.11876451855291734
0.2207120950169072,0.1819863606882436,0.12440730183048662
0.20960336125408802,0.19917135050344892,0.15980975585050738
0.21252790480684117,0.16720744016340833,0.12628735097124155
0.2113528114903651,0.18990895029118798,0.14061049810572843
0.22993861387226658,0.19560014609122756,0.13327749795512633
0.2180231545091325,0.20539267296224117,0.16080964319893362
0.23364380231093274,0.1836567375268776,0.17109258723979526
0.21783934079197798,0.17582213881254766,0.11389944093718929
0.23106353493049253,0.18537966814487739,0.14405726268301605
0.22232686346770034,0.1856416201357861,0.1497854350699259
0.23465407574709324,0.2044107022625924,0.16396403549767957
0.22782152886090934,0.17152123573314168,0.1278694670589327
0.22077217147312764,0.17313104895210754,0.12147235450810658
0.24216734756637773,0.18348289361461825,0.11893056395311948
0.23054843776721462,0.17500371450762,0.13368871639219418
0.22542476600798123,0.19727475973188263,0.1657296453322495
0.21743517789591135,0.20342479051582518,0.14342480424487722
0.22732267309166912,0.21015760623438776,0.15266467192369304
0.23155797855687746,0.19412405730341054,0.13539487824813518
0.21326041897394543,0.18111010413598252,0.13798078503973163
0.2238490948920125,0.16733628365394493,0.12181493507996721
0.2212683483314063,0.19005061185789315,0.14663612561031733
0.2123278744330528,0.18763337304136776,0.13018277182372315
0.23775202864965755,0.18778189548683466,0.14961982382897032
0.2151224406744957,0.18397733609458025,0.13574806471890896
0.23173859917700776,0.1866519300025651,0.14047750414590257
0.22888686109791925,0.19668304366633682,0.13558874272906402
0.22974537845186227,0.18597422559968446,0.14841406753346473
0.21815354804976794,0.18596862700805858,0.14247686217391883
0.2119311709951807,0.1967976185651032,0.14421813534981123
0.2323953649907788,0.20435652532739568,0.1484108840624754
0.22751435936398165,0.20829293329666565,0.1703054267501
0.20370389374978998,0.16398999976759313,0.1114768952248569
0.22491333816556747,0.18282420291822546,0.14612575589083185
0.22738656009548644,0.1814006550300916,0.13937368880449838
0.2065869113434136,0.19771452494932418,0.15161328133283763
0.2362748800600135,0.1916616247593495,0.17799611405124666
0.23806232634448266,0.19925359868519288,0.15969010777235543
0.22688051764924283,0.17784508520551523,0.12938057910018816
0.217165163629419,0.20443739235528513,0.1617327736820839
0.23383959559521597,0.17854071926651385,0.1518816150919395
0.23150343732949344,0.20837297365771446,0.18668333729004138
0.22072378173398532,0.1963500665611395,0.13557145074084512
0.21494850405372778,0.19457798530629355,0.1463933688651301
0.22932058163806257,0.19343853811090223,0.13657670388725948
0.21702268249227058,0.1888064061818148,0.1299174017290434
0.238199303687445,0.20006101967991746,0.1505911754510789
0.2171690141510202,0.19384222114937255,0.14087640785750571
0.2386363097974834,0.19049659919750034,0.14076902637210426
0.22738868966846573,0.18171054747972945,0.1323684838217442
0.23239267579869025,0.18619203990435979,0.14117280002943744
0.23730179953329125,0.17783499747308654,0.12810601203037617
0.21951808958379518,0.17742223685030875,0.14409642630810407
0.23697113292947208,0.20655985693907242,0.15882424231107428
0.2187868088165711,0.18976778049804244,0.1451425449963184
0.21801519963109994,0.17517259037658178,0.1406971820227355
0.2352185658690772,0.18779335515585074,0.14940834448807822
0.2260976734712691,0.18192592825612744,0.11695707331370087
0.22441744121858062,0.1889894677772291,0.1267688292045984
0.23182836645169744,0.19364602462684405,0.14815079545480558
0.22534227004566126,0.18721289907547978,0.13573747844696338
0.22758818008801301,0.19333159109005896,0.16397806839240703
0.2381149857204933,0.1964280877350401,0.1634859893020907
0.23174444493105192,0.1827874420720633,0.16689059807482048
0.23302474129655618,0.194578090820056,0.15634547124646292
0.2366706891660317,0.18385177213894763,0.17242658895039636
0.22272980513554663,0.17621447517604058,0.13292310554927464
0.23332198709331803,0.1834958999588978,0.15259722553487282
0.21220320868501896,0.1943057989938656,0.1287378995869133
0.22164453223747763,0.1936065662368248,0.1496128983212176
0.22761412591374605,0.199108392640249,0.14763830587528592
0.22788050530603504,0.1817882638517932,0.13553308870530806
0.23639006368879326,0.20648070232250226,0.15002864623564546
0.21604545376315076,0.1839517166290586,0.14722998281755956
0.2288321591460888,0.18480633257176823,0.13510511223757618
0.21200270546143887,0.17365678258613618,0.12830012022232906
0.2243519127959474,0.19496484761483016,0.14435816457447445
0.22931806353597337,0.1986598957996982,0.14920211246231063
0.21248121715330467,0.1838289322559222,0.13441410955076116
0.22588616904114528,0.18286484564808209,0.12735000696022256
0.2423784848016332,0.18699719717418548,0.13808274370459084
0.2199922525049486,0.20739546019018854,0.19247105489114988
0.2074140246280238,0.18920626386994707,0.13175380098234402
0.26272824986326526,0.19181999483660625,0.14985823000034784
0.23387873056856245,0.20053202868043946,0.14900599902898698
0.21277565986578262,0.16818230384189592,0.13071734999142906
0.2255366635114699,0.18881525814294767,0.13166471350282064
0.22700647779427902,0.19405965329328043,0.15282332867664614
0.23050636370226682,0.18554412790771568,0.15261807176830164
0.23756069226513482,0.2022787080173564,0.15659149093381422
0.23413068119311442,0.18384018060033358,0.14589429378799113
0.21996708799878056,0.18062943591129793,0.12566009691436203
0.22897637714611013,0.184064112485112,0.11914849686552581
0.23101365540560811,0.1789715081750196,0.14856085563014632
0.2279200197602219,0.20757514864589185,0.14438510205373772
0.22522613708583375,0.1940252009100111,0.1609524314328598
0.23387976389561374,0.1848799644402065,0.15666456675576082
0.22561497124414212,0.19150877561987112,0.1469455547707526
0.242871717330449,0.1922383116652342,0.14132173887389604
0.23814453861180532,0.18709201673742304,0.15205729857038222
0.21799595999177604,0.19324271633043869,0.13949911316361507
0.23684796589937002,0.17851383827120154,0.1429485170918948
0.23272122639479473,0.19690519479484556,0.142271579826441
0.24511718463527032,0.19126419418583,0.14631177902792084
0.22504974964822733,0.17409840761075115,0.13923409345087798
0.23625268730564267,0.18684168140587362,0.1529265928358488
0.213421053664579,0.18460081037397552,0.150239556737943
0.2543647377554426,0.18789520131296153,0.14194505005560012
0.22225645139944636,0.19545158774411966,0.1563348876142407
0.21236492857705866,0.171905729774697,0.12530460623626047
0.21592861767233937,0.19443638415158404,0.15229846695268023
0.22808155688812062,0.18633542281173024,0.12242761527158577
0.23255176188581542,0.1820859109968215,0.14142486380086033
0.23665247264281056,0.1798081110187325,0.15015574094859002
0.24116467705303846,0.1996627820692595,0.1461754851217823
0.2362007196123402,0.2104137678082058,0.18382698574755463
0.2284753638181488,0.19145209085981868,0.14838769275940594
0.2326563297275553,0.20302326682351068,0.15037131988634087
0.22707705884065188,0.18846380747507602,0.14800812922886136
0.21124828775139476,0.16940318620122702,0.11203339497427774
0.21815988671932446,0.20292844744569397,0.15166856094728975
0.21667156461349382,0.19623739734849052,0.18334722465772035
0.2284811698439347,0.18073314619173445,0.13647000410735682
0.230163180773829,0.18829366754126173,0.15224125075451284
0.2404666360931799,0.19242833943027374,0.17590657453326997
0.2004928570442004,0.19089539413648832,0.1406833109814202
0.21851219732504823,0.16251491116086217,0.10647514888100257
0.24581381249912523,0.1896695522486683,0.1445274548828771
0.23746507344419931,0.19811074532205805,0.15728935075072026
0.22612551848648918,0.19153121141909082,0.14455583982033512
0.22448439490806585,0.1905111299021265,0.17328557954635346
0.23545615699696795,0.19532802154456838,0.1386935282694547
0.21308581227027634,0.18825150389110318,0.13908122636719808
0.20461388508517056,0.19120572137470718,0.13716615500249163
0.2423918350930396,0.1741559611915411,0.16211873796971774
0.23812773602708848,0.18042636862891587,0.14395355184995334
0.21302211574535668,0.19116196580869632,0.12780969870187237
0.22636133322547008,0.18199422932793205,0.14154569119147403
0.23958997978408442,0.190384898572339,0.12966108296240603
0.2103613133057149,0.1851545946618867,0.13849843435531942
0.23577817735459286,0.19415072083340568,0.16244524350389308
0.22874240768484705,0.20397407625704542,0.13677550497268529
0.21925910454384706,0.20716515674732086,0.16131261285622517
0.22645692587873792,0.1846699984488754,0.12730757229203976
0.22242471870105898,0.19624240098128648,0.16383470817982024
0.2283934901307424,0.18412299325299009,0.12035070248821995
0.22254769780016231,0.20386958871381752,0.14355970582338543
0.22435482942715423,0.19920223070633658,0.1739126061970482
0.22500333493321711,0.18974535295343922,0.15809078174948876
0.2187311906707402,0.17600091634743986,0.13465099314330323
0.2054491424740116,0.18741366911087506,0.14955064846086977
0.21037474149919627,0.17592338458043305,0.12294250183165137
0.2332628179231494,0.17620188120355254,0.13677227859540841
0.23189681137979762,0.18806245306045888,0.15751327465939857
0.22774976754289866,0.17742168407710404,0.14475762228588498
0.2187097165072405,0.1943773622317611,0.14305518175875198
0.21756242651620625,0.18202383716593806,0.1211766532695583
0.23274818027342867,0.20427590769050616,0.14565446657984002
0.23111715053942666,0.19800715965453358,0.14379271958360054
0.23146007300709487,0.20057086233363772,0.14983655357171516
0.22428376778589046,0.18411850954655157,0.13637583883691545
0.21605087227938607,0.19426278957759377,0.13777529709453734
0.22466069638188585,0.2102816160721467,0.1441947948501934
0.2203573728086347,0.17382948637659162,0.11713889192721953
0.22724488600057102,0.1867622549471618,0.1477693035212729
0.22597615767946422,0.20390186802525692,0.13600663246721428
0.22337337076285424,0.19863450335204605,0.14760784873132357
0.22841182001702115,0.1752608895136662,0.13040696943458122
0.2158902942925435,0.21427691690046405,0.13863151126557652
0.2193489730918689,0.19223833709214147,0.13461021490151365
0.23753549380702296,0.19466763705103368,0.15269007737796297
0.20755098757694418,0.19041836004588444,0.12011926519697916
0.24253438805505395,0.1846491559143257,0.13896899453166334
0.2237477348322425,0.1854788541441918,0.13977549717247867
0.2491081578133993,0.18422902870732324,0.1582701221510771
0.2298534650080556,0.18374748880418879,0.13267894633819138
0.228547983671912,0.18802140829656688,0.1535544353466916
0.22329448190683543,0.18539782328286314,0.1379711512875068
0.2386463225380363,0.19015849436035367,0.1426153244548838
0.2501360863530864,0.19031463351379677,0.15336180944974764
0.2140319149945514,0.19716243191570224,0.12728493746252945
0.2098779183616937,0.18054954661974626,0.13210435450816368
0.2153078617678926,0.19612845543832094,0.1399781308291503
0.21932150114930343,0.19168196224196202,0.14827445882691223
0.21400531349574606,0.1734920970510526,0.1134379743682639
0.21469800606165157,0.17682866909602266,0.1573172555766559
0.2173369939792234,0.18483295563177657,0.12398452568074576
0.21408925507198318,0.18227025823203552,0.1297254671644717
0.22103463150257152,0.19391612494456656,0.15116429669275988
0.2191307038289293,0.19686283498571638,0.1512584787529461
0.22739262232105775,0.1685940064289934,0.13552525188320239
0.200406960567925,0.19802200898961095,0.14473515159790196
0.24682981212506866,0.18784149171114053,0.1419469916904969
0.2211297656036143,0.18914858298460327,0.15791104069586492
0.23180990849838612,0.1972400540661799,0.146533296635155
0.22847810485819278,0.19250579020673975,0.14380843830479553
0.22531854320645503,0.19237290609127883,0.15114680854832033
0.21077530868586686,0.20846928352906652,0.14123994667467935
0.23159428172682792,0.19334466722874386,0.14742565043669528
0.2298451548812002,0.18605610279697685,0.14034669365421526
0.24249773709406336,0.19391196056796858,0.185685136625573
0.22258215569031917,0.2103102002630567,0.14045350003055074
0.24751527131195356,0.20092745708568316,0.19223263321575143
0.2361334370738828,0.18687826552492304,0.14787390116412358
0.21425080120496703,0.18898986478418958,0.13851561556507933
0.23559808664131857,0.1777920249653013,0.13700707922065083
0.21943614820461074,0.1951219511756217,0.14834470478480252
0.23407015235539722,0.19223684034974436,0.12503504845520855
0.2353102233317322,0.1732660860272816,0.12795707385054217
0.21004893434403693,0.2116685207493674,0.14262200893538812
0.2414784026264075,0.19348667894105986,0.1292055335877371
0.218681999042458,0.19341446608385035,0.15105017033496204
0.213775955982389,0.1922072680878549,0.12637867846602702
0.22557812024773213,0.19083474879418705,0.14734734297727353
0.22378836457898837,0.1971733793045887,0.15262438586446314
0.22995754763667414,0.20799211861166333,0.1477877671473452
0.22461938483635172,0.17975341768552427,0.14464134155331534
0.2302400995470291,0.19168943039867956,0.13948772905200363
0.2608093207817574,0.17571257614372368,0.148003284655249
0.2167221061601613,0.19543298497823874,0.1508687048021857
0.2260593111148506,0.1948563351769601,0.14814567519344046
0.23072933719650476,0.18946886696743923,0.13166296687845164
0.21948078757384334,0.1711301366067646,0.12858084304928288
0.21289632010620713,0.199097773841144,0.13654504323614544
0.22654722665816887,0.18484272165540985,0.12803281787918164
0.20044265804504152,0.20234236935248343,0.1547905250562745
0.2285906123441733,0.19232413958446215,0.1305189746257032
0.2307524540616513,0.20001512154858525,0.13428917538607563
0.22754054405619975,0.18733108520766803,0.11559810993754169
0.21025714835140072,0.18752506854700077,0.15525010738548561
0.21006429723892026,0.20588920720217305,0.15259285902271244
0.22476033369320186,0.18555093606091078,0.13836965906636722
0.2168840040417759,0.1762649972055787,0.11761447524541206
0.21466868671048778,0.19747888128051339,0.15514004110468435
0.2193356211663171,0.18331358962709213,0.13374550123046713
0.22332117510590047,0.19548523978792276,0.13934847437932824
0.229357441884271,0.18894888331932308,0.13237995340119763
0.23618880557750546,0.19244728045061196,0.1355182336647924
0.23437825987137395,0.2027079559958132,0.1617318433663438
0.23122760178097698,0.20140280576221525,0.14993638025528064
0.2289896556913205,0.18708314781328883,0.15491498523834205
0.2165086257804037,0.20293922375488588,0.14899741291895535
0.20687752030981585,0.1734073776891436,0.1108036841032954
0.23910574006633056,0.17544263070384988,0.1472382645418666
0.21816781712289607,0.18988619939760082,0.11624963011972718
0.21549273840413766,0.19051220351592688,0.13625044575293188
0.2300386516558646,0.18857556383221977,0.14517784218815522
0.2224405450256262,0.19033933258730776,0.1312616006524119
0.2264797869493547,0.17097210547248493,0.12565536115648906
0.22688362334513804,0.19074009262156036,0.1317179091776317
0.24788182585861396,0.18196186919191978,0.15273321808149767
0.22843080772897703,0.18678859260526118,0.13858823742567325
0.22714081832235103,0.20078189514485348,0.13399746992967557
0.21484672362561424,0.18518707583040342,0.12701629955944818
0.20687222614756343,0.1886810806075579,0.15647547362368225
0.2284625621008029,0.19947631885255238,0.15356744214667695
0.22498423615161398,0.1898234308883501,0.1428997925464993
0.21842651300724342,0.18701858257648882,0.1244776638736801
0.22286626738122592,0.17684829095706964,0.1254640688035211
0.2239995499167225,0.19467140360898835,0.12875475554189086
0.2396956322360454,0.1723074939861547,0.14535714382241716
0.2306791217919702,0.1874675963810537,0.12138122466570798
0.23216427673387996,0.2041199056684416,0.17094977490979285
0.24807180578372032,0.20212883018633002,0.12468528472398677
0.22648717026159038,0.17614282763397898,0.14208870551245253
0.21878996792192945,0.19060527890665308,0.1358770659634137
0.24945478600566653,0.1819580853206117,0.1446475553060853
0.23656968155754418,0.20776697614037412,0.14281822024586022
0.2307708540624132,0.17599838276016577,0.1464800669056279
0.22391007305065602,0.19675469556450095,0.16270232943635154
0.21361399618091623,0.18921107194767856,0.13052615409639384
0.23196565620437098,0.18260285979540913,0.16208910311538322
0.220630273826285,0.18014785219014728,0.13460749326988292
0.21627803430351475,0.19613741843719043,0.13957592063651883
0.20056297860320962,0.17457632592444886,0.13129929127189982
0.21765036117830142,0.18507841255326304,0.1432534144817065
0.2467480166847643,0.22070767589316986,0.16848634155514375
0.21969397623123377,0.1942575170453545,0.1384686528956483
0.22682814372898444,0.1935475075567322,0.13342136288127382
0.21467347176161164,0.18213785712447747,0.1185633633929201
0.2192336856579984,0.20353948485376921,0.1637051501443573
0.2283891919695803,0.1800868227164464,0.1399057196861404
0.2342464762170024,0.18409652877221555,0.13344873688223985
0.22120964382573888,0.18585247460207427,0.1334278621066824
0.2064755894294932,0.18571879112710118,0.14186511012849914
0.2367910296336239,0.22024739975985813,0.16187354057480244
0.21843862028366381,0.1909696466352253,0.14521715823798395
0.2241851320414247,0.16837743686527845,0.11651361407677926
0.23937727120154795,0.17987309702470985,0.15913568566174285
0.2187157956353949,0.18770169107319762,0.1629095189362389
0.23144299823650755,0.17852754701922072,0.14026522731879335
0.22883751299104432,0.17991995004705422,0.14558181075412538
0.21940398594426358,0.17967417853262782,0.13520831123988003
0.21389520604559362,0.19508948810016338,0.1426069318743427
0.20401361248372296,0.18133098495516026,0.13449438675330083
0.2297208555588387,0.19010526337024752,0.14743729238926392
0.22450485832611922,0.20496199493424297,0.1400820758701563
0.22961731860965695,0.17158427799920423,0.11241121221752469
0.22580749674797612,0.18816570389642637,0.12901032570620108
0.21875167391807665,0.1840034966773349,0.13201580788476355
0.22575654871568832,0.18278755823653586,0.1349278723462679
0.21986933480253273,0.19512935561906716,0.14440260518369233
0.21575173847319826,0.20973783232696194,0.15894014226777375
0.23188212358730909,0.17834545729564885,0.1358120617061779
0.22443799968066336,0.19136426336561277,0.16576203606099688
0.2155593013793166,0.18066014294378394,0.13312171008201337
0.21615277178184564,0.19859372193551772,0.1430117528153614
0.22783647146629818,0.1917692209292376,0.1516100295011123
0.2352138563473437,0.18206424452608105,0.12625323884687548
0.22277252875706513,0.20681154295338147,0.12420728555975569
0.21836096801527222,0.18212260127768043,0.13605973355679146
0.24878142408414347,0.18177094600211774,0.14331400036102368
0.2325021087110042,0.18413183331187913,0.12639637957426025
0.22378001230763994,0.1874459148104337,0.15515332007535867
0.21617632423085528,0.17132843284260668,0.13639271623937724
0.2199886661281412,0.18531562801792129,0.14304461911118102
0.2201239119262301,0.19641147586785832,0.14533928605424962
0.23163471064664706,0.1975124167184422,0.14859244393206417
0.22412704097781933,0.1844698767608183,0.12652296129677315
0.21871550821576113,0.18693761797845404,0.12001632214536818
0.22085348226367763,0.18550008746500962,0.1405039295890671
0.21691832368569,0.16500115897479592,0.11317649092767548
0.23450167086617796,0.18873944890180316,0.15274304021844892
0.2096313738688107,0.17653664631393332,0.12732758929984278
0.2368106200755878,0.1980277831077232,0.14402246072938704
0.23854738597761171,0.18207297731665584,0.12939412879728107
0.21787534703749678,0.19475968113256864,0.11858274198822544
0.2361885148537661,0.17634463270021558,0.1278713327034768
0.21646874240022748,0.18384614147133033,0.13615183714521098
0.22243941386496072,0.19424102350084965,0.1377926355085128
0.2164270991571513,0.18443619926026564,0.1429740508824535
0.22312136642915162,0.18607890257644863,0.14470020423581742
0.2246945300488662,0.20859427177228562,0.15137097211101924
0.2266459259035425,0.17213213044653272,0.12922398646452019
0.23155950839153366,0.18970956429228336,0.12401594663761803
0.21806381290925944,0.17715058113371648,0.11235535517900609
0.23761284558919815,0.1827241725775453,0.15749748362218288
0.21984536588548326,0.20922061901929867,0.1349670545805998
0.22748453537235083,0.17618607277349554,0.1438809566394619
0.22313555819150063,0.19114239488031023,0.16550685898791337
0.23485497997176777,0.1882190529436286,0.13816383658967013
0.21899022411335217,0.18419686169825172,0.13372890849433564
0.2541515466968883,0.1913861911679025,0.17980863206941877
0.24896599810475897,0.18304848008762145,0.14247472655148613
0.21832388518350412,0.1705992614926832,0.13878006217681219
0.2294424958019911,0.17500257037021966,0.135248849877716
0.2169513184151581,0.18656985615932284,0.14391888062799174
0.24014898111444538,0.17857075144454063,0.18780089744266007
0.22022354860224172,0.17548212700333876,0.13014946279347267
0.22481229804170347,0.1884895407237789,0.1241017355412746
0.21646967394378985,0.17446349049698653,0.12253561862659078
0.2319483437162683,0.17849672514114306,0.14383123353932206
0.24725033317863088,0.19341282982968,0.1465287925665392
0.2162364933653273,0.196030959755893,0.14709263787957516
0.21250988682902394,0.1742550522152022,0.12831970524724237
0.23366457087949932,0.1811228847320428,0.13917208783834972
0.22677209549959054,0.1886358829261515,0.14509121166975703
0.24683976011410216,0.20596581127240016,0.14565877177428166
0.22059735503397884,0.20083646926172305,0.15200099286964538
0.22210134650068517,0.18964417162023062,0.13874516358962372
0.22611255235283814,0.19456652223149923,0.154833975953094
0.2242267547867586,0.1708611813718215,0.11953012660300863
0.21995762386249548,0.1786407007916055,0.13837888200845566
0.2375929379086605,0.17751369849044651,0.14355665093444395
0.22960133371209465,0.1993704113400918,0.14823678003296578
0.23371320643331925,0.18920409275126618,0.16154900252328777
0.23392486302203452,0.20552195996604292,0.1590200821393997
0.2328858909090145,0.18480951811938215,0.13861583705067118
0.21687638761312905,0.18435079029241136,0.13447379711552948
0.21614535829421624,0.18597479352876173,0.13943834130151803
0.23235262538812262,0.18786078838628867,0.1602497148175052
0.23528240324096666,0.19976628452336356,0.16426175631735565
0.2312840709524652,0.20096646221828762,0.1511131525111378
0.21866822104065564,0.1851237420164189,0.15030274414758
0.2251377890775697,0.20077558309400753,0.1438594202896125
0.22854673338967887,0.17916214856750837,0.14123918689659729
0.21393476172660536,0.17797260881226729,0.12862670163075587
0.23287127469853158,0.18227258199321486,0.15044315391719282
0.23822039824198074,0.18232530333264194,0.13809059779253216
0.2197854899611303,0.1827833527539229,0.13322253915536827
0.221134888317747,0.1917143896097212,0.14805573443366749
0.21905482186079125,0.18342458230196299,0.1451906114154784
0.22275299307657898,0.1847965359091636,0.14221118405344393
0.2364030472799628,0.18237951198769187,0.14305535614237083
0.22230949396237568,0.17121202887325288,0.1460635654255809
0.21700237240649473,0.20566286999936711,0.16280530096845278
0.23546736455875528,0.17342479446282819,0.12608829896004178
0.22324293615028737,0.18638300954387532,0.1376017402809107
0.21596266083762783,0.1766008701436271,0.1414062550020389
0.23818062365241915,0.18840696305787508,0.12433361437538165
0.2184973209154567,0.18454254251329819,0.15117148531688843
0.22386764531197265,0.18957853158454088,0.1686641792233185
0.2277839530343544,0.19944395062720024,0.1471861578091885
0.2411716033339991,0.18995857947190403,0.1483411170472054
0.20900299213017678,0.1747708470491981,0.13836581824370645
0.2277963097977523,0.20147542327462423,0.1533991615748235
0.2340405464423844,0.18054913071226644,0.14609976410584224
0.22584063719497813,0.18348591415184445,0.1168840350131395
0.22267845701197408,0.18810401915299402,0.1551875399778538
0.21409439722203524,0.19544989832640547,0.1304421107047043
0.2099146666646989,0.18126509793658577,0.1444244089216498
0.21854426045077868,0.18614305324969163,0.1227764762546144
0.23383911394115528,0.1953925053264253,0.14474162968778087
0.21811840520434736,0.2028208974129465,0.16184663762714394
0.24792733317016488,0.19161146165557852,0.14627341056864326
0.23147157359168488,0.19674582708379193,0.14293775158963906
0.22274842303240006,0.18998514187326912,0.1427119906144632
0.21026200214489682,0.1770364174304863,0.13239651035607722
0.22722269682797158,0.1776577051609923,0.13854532252431306
0.2208963925407074,0.19683288188543782,0.17077342249788444
0.22202355215096006,0.21002482174806503,0.1374515628888269
0.21778563345723737,0.1768981964371661,0.12184802055750796
0.22156397356207064,0.20182432747334583,0.1183619764692771
0.21357636820614484,0.19625885036338903,0.13148964520201256
0.2438576708675995,0.18342775759118915,0.1359388781664574
0.22553585241396637,0.19692955660113756,0.13197865947897797
0.22307027690576353,0.1894197683111499,0.13430174852637394
0.2293517835131048,0.19703659949775962,0.14105257425908416
0.21949420428242042,0.18952719466905318,0.12756068983330687
0.21861625364586237,0.19997416197199072,0.12704416555978978
0.2301415071761452,0.18828638625510266,0.1469481248532319
0.2121164928492848,0.18883836396525744,0.14337315253217747
0.22688409221071765,0.18092326523456947,0.13343855163405738
0.24989413318463982,0.18670174331739575,0.15271253338553328
0.20926784111190957,0.2111114147482755,0.15820135235054414
0.23998965794727198,0.1919455350803208,0.16620374874890953
0.22528689326989526,0.18640166684593656,0.1326014978195
0.22144539297746468,0.18547429926310294,0.14272634716035856
0.22015806078717823,0.18450500113767607,0.11571011109612099
0.2278392344780331,0.19275843289586778,0.15092649982468045
0.2243231023673205,0.18551067562120685,0.14234134437206863
0.22495531035422245,0.17509760889880494,0.12932575001363633
0.22393562077607157,0.18412602901235636,0.14261403322403998
0.2096183747817344,0.18986855253030846,0.14824789951230496
0.23595635359573608,0.1954184574941753,0.1532312837271975
0.23566317618695853,0.1922934132690698,0.1534228815901644
0.21116671547458066,0.18466663443481948,0.14802175434458495
0.2233224659171044,0.20136618050017163,0.17770399870733922
0.21406582417544984,0.18176020862557055,0.1451457645638189
0.23163837007129154,0.19450980267050386,0.15163855604796647
0.2186368171040659,0.19490397941934845,0.13246294803564032
0.21806205937664627,0.18707646966726274,0.135303432158289
0.2176670496841972,0.1777979134414407,0.14722191678767346
0.23519345209528583,0.18092077840062734,0.14167194748390852
0.21996643490333992,0.17646758504236892,0.14218352186800373
0.22767590880031507,0.189324951522363,0.1609144227838915
0.23537502315077377,0.20220423480862376,0.16343712603414087
0.2217394491251308,0.18421825979436873,0.1453493340454846
0.2105278654637548,0.19091339733928356,0.13362032617547095
0.22629286328340092,0.17206548258723653,0.12788827144192572
0.2422994413275903,0.19182490770903052,0.141807913866443
0.22305245154013906,0.1874612679405127,0.1364302522266168
0.2405944140207341,0.18774204208289677,0.13475843335854482
0.20895857266128226,0.17826597820125636,0.12328616391532303
0.21643899946576511,0.18351149601475905,0.13419836625994716
0.24005902151251873,0.18583391328481932,0.12525434486974296
0.2319562188207282,0.1868065351177217,0.16627224706648813
0.23948397535981555,0.20118305879049445,0.17121436064364468
0.21209856181665435,0.1929803042768097,0.1424093300692948
0.21128161059439832,0.1846645817767517,0.13895666479443244
0.223580816683491,0.19876379085806753,0.14855767729402772
0.21438863273835487,0.17997985730847182,0.1374042671538705
0.21049124763261956,0.19995766847360802,0.1256976394944928
0.2088483505960945,0.19092804931886675,0.13585741715354277
0.21134293752323438,0.20517487418480487,0.16616135955011344
0.21373242903166026,0.19988951464961985,0.16557668610651918
0.2283286113532305,0.17684079101075875,0.1459796722121512
0.2123771255397457,0.17915099377100696,0.127242998476521
0.22581258677298374,0.1880704293587058,0.12073059370403047
0.22857472366879295,0.2014131269016413,0.14544326796524507
0.22559377634884006,0.19093050611016438,0.144919546480205
0.22950130096570412,0.19285960240629316,0.1430704440829556
0.238685088193605,0.19055417295369717,0.1329613100147025
0.21286990975173672,0.2012344545160768,0.1642210982248288
0.22581548115087452,0.1980472964881971,0.14866418193962472
0.22511174374869922,0.2099683193720743,0.1486169173002723
0.21267506462973587,0.17313128888999368,0.1311421180472904
0.223599783361908,0.18988173589516574,0.14748818430672772
0.22326090548038457,0.18241169263311405,0.12301919522520473
0.23646963124860065,0.1854993719346616,0.1354338075733296
0.24153134400009385,0.20273544573366942,0.15571842278453865
0.24561556714588995,0.20576615006143723,0.15413177938122904
0.2127206423789052,0.17583988819169227,0.13700872731470934
0.21168341086485892,0.20685132974425047,0.1322289442475773
0.20787757653999436,0.16871351856405145,0.11954448223951775
0.22061872648228573,0.1868835742182982,0.13238829596060606
0.2392513369656114,0.18915750064483472,0.14029484056922692
0.22096073057286772,0.19522762160708781,0.13865802685130357
0.2290052267256903,0.19967439793840558,0.1579973493759073
0.23070984642727643,0.1757015735007156,0.12932522432990634
0.24298310338826914,0.20832836345708303,0.15361824368161456
0.23238069584281285,0.17717700420946278,0.14076049148078285
0.2335032302123025,0.19187936806184236,0.1421629275403864
0.22571809288318243,0.1829089130135996,0.14439336337933223
0.2179728077558466,0.22448026788847675,0.1678329178485175
0.2170616478101029,0.17934268819756716,0.11980864872884998
0.21201141839332308,0.16455948171006396,0.12614781092429075
0.22963910895166267,0.19949304572845392,0.1623660326617909
0.2078083929920792,0.18530163057815918,0.13497332312168173
0.2110843256696244,0.19458068422794225,0.15182563937308885
0.22786237723038588,0.18889917161554842,0.14805768214230003
0.22484907611525784,0.17860676826789984,0.15783101330200938
0.24085011162919231,0.1971225573495221,0.12485918191658617
0.2142690680759657,0.18362388839135815,0.14181373927629123
0.2062055739781801,0.19036902191139587,0.14372690327501925
0.22788292914319552,0.1824826691443447,0.12661725879323799
0.2213545512162823,0.19322082013836311,0.14474708923130977
0.23963404727652904,0.17705475732639162,0.13498672089973768
0.22085058442293834,0.18204859456403039,0.14678677166354262
0.21898930164890607,0.195173721072296,0.16954458107815853
0.22888879450630106,0.1764570694609521,0.14754197772291205
0.23524995551053438,0.17869194273201502,0.12521866247945163
0.21912228712626114,0.23072423714174423,0.1926123040823657
0.21062834611093473,0.19010971731762624,0.12675018297605772
0.21350726686594323,0.18876000829922354,0.147565178811699
0.20566660482778812,0.22914925972494557,0.18809104890657496
0.21781391232164599,0.21766665070399532,0.1581475890272895
0.2423080687918704,0.18213095477329255,0.14684623395176077
0.22424702054773735,0.19578894284403936,0.15421280933853085
0.21416340889581095,0.1851910480568578,0.1421556684305009
0.2102033840760399,0.20588419248850676,0.16002678835833978
0.23081343049724667,0.18324374980936228,0.14952893934880226
0.22718734767247242,0.1883128559230526,0.1399133732991861
0.23782611209163873,0.19362166457724778,0.1450549396703907
0.21816999363080625,0.18753743342607632,0.12358002310547533
0.23470145800534964,0.18986543860797736,0.14125644674229848
0.23686444383356442,0.18516225064250671,0.15480705176343504
0.21936597936323543,0.21185516259233933,0.16414298988075077
0.23048419388411565,0.17973626782482036,0.1447266066978356
0.2471225153169602,0.17987930067349298,0.1415806702676826
0.23296854064288838,0.19506070012629434,0.16613140714686028
0.24173405907998483,0.19963453416737834,0.17564047751131318
0.2204479012048767,0.17037731022689867,0.1136436470719468
0.2167589637026055,0.17516261738785538,0.12366397490200225
0.2340668220235815,0.18686979044463103,0.1457477545277908
0.21427422921640643,0.18792296490959853,0.13767194705285957
0.23459017409992186,0.2017249170237191,0.15661549011498638
0.22366405182595508,0.19457178418654344,0.13786012680124063
0.2072185743399441,0.18523540570625602,0.15395671289061796
0.2150088626140934,0.18215504249712708,0.148089267267245
0.2248632931414293,0.20076635045360497,0.14818320944186633
0.22067260278131293,0.17531222859227566,0.1436348395721434
0.24170358516472495,0.19576258153758913,0.164789075307384
0.21143872491048593,0.2009104062060656,0.14475564920490094
0.23578877231617154,0.1855185309020651,0.14505083425210308
0.2281506584974159,0.17885360493448227,0.15119439681335714
0.21539012234928934,0.1776051323196887,0.12391232308954017
0.21233978106605803,0.18958584823759514,0.16390716183471127
0.2143373523225189,0.18444986122739623,0.1454111791007148
0.2507519031477399,0.19190496858766526,0.15785135970398056
0.23030076063579843,0.17583558136036243,0.11882132448769493
0.2198845462137439,0.16882097550351496,0.13101780703020524
0.22149700811488443,0.1873670077207162,0.1409868492781239
0.23844804220221433,0.189228715363917,0.13448221317737222
0.21919847987945273,0.17533857657531016,0.13329209166088846
0.2237974730333272,0.1747977891993833,0.14006744833016765
0.2281939638477103,0.18239103948188262,0.12053573523918232
0.21516404260897887,0.18309744224368502,0.14346163961922415
0.22334766213827656,0.18152336484242632,0.1305277283340722
0.21685535114792895,0.17642815329463996,0.11545713705470464
0.2246880154891177,0.18282913628538636,0.14778388493057534
0.22850910200817115,0.1925247915750102,0.15056989655683353
0.2295067464320803,0.17841672635981584,0.13306679472509003
0.2182529415315717,0.20802853729452223,0.1478737800017375
0.2165783276105988,0.18701788332400562,0.13921220650513885
0.22186913194882615,0.17932001787163052,0.1204190831781493
0.2126823530234949,0.20139092124676564,0.14355911975185437
0.24308979911333273,0.19761956579722148,0.14023078112571302
0.22866409295430692,0.19488095243826747,0.14159643953438825
0.22257488173070053,0.18669571821461814,0.13131191512699172
0.22615243694893372,0.17686827743598033,0.14621461270390268
0.21306703329733762,0.18184952729839343,0.13511562120745924
0.2374064473644273,0.18864733529531694,0.1490981530193435
0.221826295196886,0.1903254875336925,0.14257945194480728
0.229660825578349,0.17894655170967183,0.1296159618236254
0.22827077904648269,0.20162061855489985,0.15572853262346215
0.2256091239863864,0.18663986550531222,0.1449906483084412
0.22791079007218962,0.18023088195733994,0.10662039169726985
0.23225690543780148,0.17953617844415296,0.14100909801061096
0.22136068472425696,0.1791358176090008,0.15064764415005438
0.20932256169292726,0.17246941847808575,0.13160329295502668
0.23793661428976187,0.18200152560028454,0.13201141378662123
0.23136673985162995,0.1860140237321005,0.1514232755962313
0.22234462827596083,0.19364236126837808,0.1256820786859481
0.2327892526341124,0.180473183863951,0.1430961523805242
0.22306095822166966,0.18256760309722825,0.15191822283407974
0.2231988552534807,0.18366786997107218,0.11421353313608691
0.2300916810341032,0.1917082319715183,0.15650883493298767
0.22662274221385678,0.19651316910978756,0.13522940415842252
0.22686080574677603,0.17836640769466347,0.11869846266484961
0.23380980180844518,0.17952673851880166,0.1338789802785242
0.24073008435131849,0.1897652850517509,0.15009947818870828
0.21851123154555427,0.18348917270543408,0.13026352078223194
0.22418703363651749,0.18951578643555517,0.14529634332661245
0.2180115138085789,0.18223764662143477,0.12143755509482915
0.2305941626039905,0.17300172359319313,0.14776177789454314
0.21537080496540942,0.18698260889885895,0.12425921103218898
0.2275314902946306,0.19773327590886255,0.14000981148839128
0.23201414627889438,0.18819691448515855,0.1496832326127123
0.22304048782552707,0.18140976644897158,0.13194654734973435
0.22450720336675165,0.1839018850068021,0.1401356205034743
0.20917155145818045,0.18651331613849453,0.12646697706651816
0.22998591113083144,0.18344409911746995,0.13709996261430743
0.2221800073217084,0.19949644152692259,0.16696408587326786
0.21941746179082858,0.2045107982271665,0.12366994299427884
0.2488310675063564,0.19695153021302944,0.16845779372734807
0.2235578582723669,0.19955802082206678,0.13420089506385047
0.22687352804411223,0.20539432921821515,0.16353965715227106
0.2398438416960514,0.1827226482121919,0.13109951009571424
0.22476924914242277,0.19035334991776381,0.15150049836010157
0.2240132688855955,0.17734746741395058,0.13254183863324995
0.22533950463545022,0.19611479859385086,0.12201530292753399
0.23170462301893197,0.18740344158350872,0.15119508846814617
0.21591932328905308,0.16541611323484073,0.11965859423902749
0.22741014627206493,0.17566655284844243,0.1291425436427022
0.23190645535313628,0.18003285105533415,0.1431768068248183
0.22182881860286338,0.1957494910945585,0.14833022880977398
0.22662367456669205,0.18300965687571533,0.13360654515467
0.2522908120536265,0.18821523649561495,0.15823351419856954
0.22439921658802853,0.1860411129101114,0.13150791811956195
0.22767855462937128,0.19071068098864033,0.14838910812499195
0.21191863966411764,0.19391342523213193,0.16208294445444899
0.2273623952620356,0.21178016258246438,0.13005059671825572
0.21872737758775457,0.17938832569484892,0.14508706889451586
0.2070148129306622,0.19393427211760794,0.1453463310127289
0.2266958248539659,0.20206877201496118,0.1582347022751033
0.23208801455903139,0.19100912873606554,0.13255876960515237
0.22763517877727432,0.18387178326231318,0.14367648120552076
0.22688068959437155,0.18277319862123462,0.14160062677612667
0.22849415853678692,0.1868067772536861,0.15483526732807362
0.22329477330595013,0.18440890837070595,0.12069396114303857
0.2134951540577368,0.20610876243827508,0.15794656317374717
0.2332160490209965,0.19762223664314874,0.15173813196924815
0.2260491776913255,0.20206121461520685,0.15796119842081666
0.2222665345462563,0.18829568827257348,0.14140937903003617
0.2283251681834027,0.18779130673406888,0.14209034016096853
0.21421629835919864,0.17324026850905982,0.12353255706909683
0.23412920747142588,0.20679792363898833,0.15341399878066125
0.2107502522316183,0.20284461776913934,0.18032491156756775
0.21833413940503868,0.1785607645283295,0.14281689169116824
0.23327701697240538,0.19322771038253203,0.13468588358721983
0.2155405691959303,0.19372327627844463,0.14881353387325325
0.2316600871764761,0.18111670903274332,0.13695905890520907
0.2320309376305475,0.18987753017637868,0.1527509646641929
0.221379789008883,0.20763858729749188,0.15290371493570504
0.23133830827114069,0.17934984575398363,0.1664615464635804
0.24817763147781688,0.18971355439253468,0.16834960241979838
0.26638499629575474,0.17431007568575785,0.1599019579692747
0.25142209600366394,0.1975276497956252,0.1412481966877703
0.2282184083514034,0.17699820118620374,0.15901833152153763
0.21004051973607388,0.19035777435936518,0.12839862903088994
0.21335384354050008,0.20449232089853672,0.14959613290368595
0.23106421681824177,0.18564645730666188,0.1487337708863695
0.2561226953187759,0.1861591705410542,0.1334322222275467
0.22797976243606438,0.18407842579770772,0.14652169355258018
0.22347176872539748,0.19994303500713412,0.16363083037593817
0.21574570607935037,0.18609541715676664,0.14818106277279028
0.22784200099396199,0.19479970063784466,0.13508484517078642
0.2284279870720568,0.19270487080268997,0.1415878123124722
0.23956365634166096,0.18840630255735344,0.14395187481839994
0.2308780104491724,0.17770656989022546,0.13241974571559614
0.22411629929730018,0.18510743814017994,0.154514540035817
0.22837158237752547,0.20141605159838102,0.14739439829200052
0.2298806950604837,0.1785912545843372,0.12760829525459896
0.22172308682069974,0.18597843947623408,0.11309892642814187
0.22307151317809462,0.18645759651779237,0.12349972371241456
0.221882219200771,0.193013093517717,0.13055120982193258
0.22533894698982257,0.2085605856735861,0.19763686878443923
0.2259707502256389,0.20315894341985777,0.1375239369262195
0.2213622975968434,0.19067084674660303,0.13209696901110365
0.21756075943697534,0.19067499742575697,0.13078864804870888
0.23040203456760436,0.2121242383188117,0.15460664062309565
0.22067602132768893,0.18116031084144488,0.1477881044726926
0.21381460137240105,0.17001495339618103,0.12134547539565574
0.21527051876299388,0.18021817713463942,0.1392463419170978
0.2504037724934931,0.1846998369735597,0.12363121648428668
0.2162978574672872,0.19946511358120145,0.15778441913353514
0.21063844287756658,0.18475665767272062,0.12948944982350805
0.21917839325121743,0.16996777248438197,0.11774135259719795
0.24445292599586121,0.18886327726374877,0.12343936806433434
0.21486034239678617,0.18405179338703306,0.1317781865021187
0.2143120438440157,0.17614731255999652,0.13253395053514003
0.24939983059028487,0.19336781707504758,0.14621346670586652
0.2342288958190053,0.18097895864408733,0.12272363744487343
0.2455374145118046,0.19539335130929955,0.14874072908293404
0.23323669963017907,0.17011744770428544,0.12756634899396369
0.23254592369842617,0.20950579240691197,0.14596399613020475
0.22760015710895473,0.19177480272947556,0.13124444347876316
0.228338340774663,0.17995018302592414,0.13205804335214483
0.23001834016397302,0.19650048673082698,0.1483358535505054
0.22144331357886202,0.18284432816116,0.12949690268542843
0.21220658614914892,0.18096259323458655,0.12797320508148716
0.22296031897771285,0.1919045136593891,0.11927366678377398
0.23225795614501119,0.18493815761068672,0.1702748376274096
0.2230857749184485,0.19833673573405278,0.14824804502835834
0.23419386390564734,0.18812242077088218,0.142514903659547
0.22586413501483316,0.1844093037968022,0.14540960781970966
0.21515434012991955,0.17042453212511802,0.13850581878115978
0.2410712134290707,0.17956311949964227,0.1261536185920702
0.24145586567305302,0.1900073143216861,0.12883231570869513
0.22958199602703777,0.1932965209107833,0.16644152229171622
0.21637141902244875,0.18945350044262127,0.14038213377153608
0.218142747143771,0.19123035428245458,0.15652855303956864
0.22646443536582772,0.19488092391820952,0.15169630144993979
0.24393423868467928,0.1887047396762293,0.13701675905614843
0.2137806887902831,0.19933302980112605,0.13895079491617804
0.21318366546312714,0.19590172443427306,0.16051745021723415
0.21544337049903087,0.1823410303446254,0.14279719888250061
0.22079564238785732,0.17782237826398414,0.13206057590198614
0.22380069893342874,0.18137340694733284,0.13029702374575292
0.21750784675794296,0.1816198943365675,0.13942181598435557
0.22376023902701495,0.18054695231908371,0.13537021087619325
0.2294459532410236,0.18430062054787114,0.13990868700554743
0.2168944437495163,0.1908464699277868,0.14113674391981887
0.22218775137481617,0.18096267622639792,0.13686252769905582
0.22372236898187098,0.18406578537076138,0.13186561686059345
0.24453558875958062,0.1868096578548005,0.14452865772691909
0.21313327168822196,0.20086365642795725,0.15451287926381724
0.2414471383682903,0.19208349627989255,0.159116736812306
0.22255458793029267,0.18595353729630765,0.14038988747108094
0.21704722135277515,0.20178835356789893,0.16929575555013732
0.21754820704910305,0.17898159193743096,0.15566365040299773
0.2178672587902891,0.1953801123600799,0.13666063754589436
0.21360327455401715,0.18666751265473366,0.13439982370184922
0.2222007395087356,0.17954285811513235,0.13088712493308013
0.2407324561703534,0.18014042108213016,0.14266879343238603
0.2407664605589808,0.1874460414522466,0.15397632469163378
0.23519218502983535,0.18710998614279284,0.1356057031480762
0.231047640180564,0.17972610072058362,0.15669649640896346
0.2274325290397178,0.1779086544372057,0.14051814243081528
0.2160594852371088,0.17267122477898045,0.12632110947964226
0.2130481811262157,0.17194738254324754,0.14015208299531295
0.24954747758814338,0.1773060962193354,0.14066438576793727
0.22434627375150548,0.20079755663513824,0.17465494529065897
0.2143489474718801,0.1966902123182197,0.14955523787703903
0.22982996527738953,0.17798416873754128,0.13354419300211143
0.22084714744800477,0.1739557015368026,0.13506547679567277
0.22194986055636406,0.1741904703268121,0.1367251129343921
0.22708248910844658,0.19337841251348248,0.136606285270035
0.2226385208816763,0.1919773527500593,0.16712891674664485
0.22345888657450316,0.1992856662544591,0.16717286027942643
0.2142664124561913,0.20781920898053102,0.1625044138342582
